-0.0045897,-0.010446,0.041956,-0.0021496,0.038651,0.021288,0.039547,0.039708,0.06969,0.050683,0.067871,0.057259,0.075524,0.039864,0.10406,0.090136,0.10359,0.14769,0.12567,0.10029,0.075107,0.11937,0.13108,0.12122,0.14511,0.14071,0.12716,0.15345,0.16515,0.18205,0.18162,0.15879,0.13463,0.195,0.18102,0.19987,0.20622,0.18822,0.2655,0.25341,0.22743,0.24567,0.25688,0.25918,0.25555,0.2239,0.28555,0.25007,0.29393,0.30268,0.29363,0.29638,0.28708,0.30922,0.33173,0.3116,0.28502,0.34937,0.35567,0.36034,0.34771,0.34541,0.37368,0.37019,0.34216,0.38815,0.37712,0.35652,0.43075,0.36882,0.4172,0.40309,0.4096,0.39084,0.43046,0.38828,0.4139,0.41985,0.43292,0.47352,0.47116,0.44239,0.45575,0.44357,0.48998,0.49213,0.48462,0.49782,0.46693,0.46469,0.50893,0.50183,0.53105,0.51399,0.5035,0.55879,0.55809,0.52247,0.53309,0.54028,0.55181,0.57607,0.54745,0.54795,0.57346,0.5739,0.58926,0.58252,0.57166,0.5917,0.61081,0.59518,0.59032,0.60005,0.58922,0.58333,0.61878,0.61958,0.63935,0.66381,0.6573,0.6805,0.65444,0.65408,0.68957,0.67205,0.6879,0.66936,0.68185,0.68475,0.72339,0.69643,0.69426,0.65617,0.71579,0.71479,0.73086,0.71384,0.73317,0.73552,0.71222,0.72898,0.75717,0.72993,0.74561,0.76065,0.78323,0.77866,0.77031,0.79064,0.78088,0.74908,0.79218,0.79564,0.78013,0.82439,0.79888,0.77041,0.7889,0.78062,0.83202,0.81274,0.81391,0.81099,0.77502,0.83934,0.84253,0.79297,0.84522,0.84025,0.86202,0.86789,0.82521,0.88509,0.87265,0.8455,0.8927,0.86557,0.87287,0.88254,0.87278,0.88021,0.87744,0.88366,0.86567,0.88109,0.90069,0.80873,0.88591,0.86397,0.92188,0.90396,0.92388,0.91607,0.87736,0.91627,0.90584,0.93536,0.93075,0.92638,0.94177,0.93056,0.94036,0.96274,0.91922,0.92705,0.93869,0.93381,0.89511,0.92816,0.9431,0.92845,0.96822,0.95935,0.98953,0.93426,0.92157,0.96939,0.9745,0.9646,0.97726,0.98944,0.93328,0.92961,0.95969,0.98687,0.99015,0.9572,0.98097,0.99829,1.0067,0.97304,0.96534,0.96649,0.98464,0.97422,0.95519,0.99899,0.98706,0.96243,0.98408,0.96009,0.98665,0.97714,0.98151,1.0075,1.002,0.98949,0.95722,0.98022,0.99961,0.97896,0.96763,0.9991,0.97988,1.0034,0.9648,0.99536,1.0092,0.98533,1.0126,0.97255,1.0122,1.0159,0.99264,1.0057,1.0469,0.97536,1.0034,1,0.98329,1.0158,1.0018,0.98091,1.0027,1.0007,1.0092,0.99557,1.0156,1.026,0.95387,1.0106,0.99308,1.0018,1.0215,1.0109,1.0147,1.0285,1.0136,0.98334,0.9945,1.0205,0.96738,1.0084,0.99614,1.0253,0.98013,0.99297,1.0138,1.0135,0.96509,0.95108,0.97397,0.99354,0.97215,0.97139,0.9516,0.94998,0.95635,0.92722,0.96795,0.9779,1.0108,0.95615,0.93537,0.96154,0.97432,0.96524,0.97141,0.96939,0.94603,0.95921,0.93978,0.95067,0.94484,0.93643,0.91374,0.93263,0.91988,0.92894,0.93696,0.94322,0.9183,0.95679,0.90351,0.92735,0.9292,0.93282,0.88503,0.89255,0.92042,0.91963,0.94002,0.89937,0.89591,0.8911,0.89827,0.90861,0.879,0.93414,0.88557,0.88175,0.88243,0.88846,0.87788,0.88327,0.83004,0.86744,0.84752,0.86057,0.8474,0.84008,0.84942,0.84951,0.82579,0.85358,0.84865,0.81275,0.8226,0.87211,0.83398,0.81848,0.85049,0.82589,0.78587,0.78127,0.84627,0.80674,0.79222,0.77936,0.82243,0.78486,0.76752,0.778,0.79311,0.77443,0.76714,0.78721,0.76716,0.77663,0.74265,0.75854,0.74955,0.72494,0.73372,0.73032,0.72345,0.71551,0.72923,0.73735,0.70785,0.71286,0.7034,0.71254,0.74053,0.67272,0.67891,0.67833,0.71044,0.68564,0.65432,0.67968,0.67538,0.65962,0.65861,0.64059,0.63569,0.63828,0.6602,0.64817,0.61975,0.62053,0.62396,0.63633,0.65262,0.57988,0.5683,0.60942,0.59738,0.61441,0.54471,0.5636,0.57075,0.57006,0.606,0.56669,0.55268,0.52248,0.53233,0.53796,0.54436,0.5262,0.53454,0.52796,0.4767,0.51082,0.51376,0.50251,0.49496,0.4967,0.48625,0.4956,0.45769,0.48194,0.48847,0.44143,0.45225,0.47175,0.47741,0.45503,0.42822,0.42811,0.38869,0.44648,0.38665,0.3964,0.40677,0.42413,0.41124,0.37245,0.38327,0.38344,0.40252,0.36407,0.34801,0.34824,0.34542,0.36379,0.36672,0.34534,0.30396,0.3155,0.31718,0.30734,0.30642,0.29715,0.28272,0.27382,0.25532,0.26042,0.2656,0.25344,0.25956,0.22903,0.25288,0.25701,0.26712,0.23188,0.23593,0.20815,0.19221,0.18761,0.18851,0.19219,0.20473,0.19115,0.18257,0.16011,0.14374,0.15831,0.1573,0.097202,0.13923,0.13749,0.1263,0.14876,0.14051,0.11659,0.12829,0.087226,0.10359,0.092049,0.099009,0.085687,0.086227,0.054225,0.038874,0.023531,0.045254,0.047082,0.035812,0.0092905,0.031435,-0.0091829,-0.015533,-0.011584,0.012295,-0.035454,-0.024394,-0.049898,-0.012424,-0.040465,-0.050524,-0.034531,-0.047716,-0.062449,-0.055458,-0.033193,-0.072394,-0.10939,-0.095522,-0.085228,-0.12545,-0.12138,-0.099983,-0.065608,-0.13463,-0.10778,-0.12086,-0.14867,-0.13119,-0.13004,-0.13901,-0.11883,-0.17645,-0.20305,-0.22567,-0.19522,-0.18543,-0.16582,-0.15798,-0.18203,-0.19451,-0.22819,-0.20101,-0.21604,-0.2547,-0.21549,-0.22569,-0.27953,-0.27222,-0.23999,-0.24526,-0.27153,-0.2879,-0.28603,-0.32799,-0.35684,-0.30501,-0.29728,-0.27521,-0.33022,-0.34307,-0.33172,-0.35651,-0.33754,-0.35689,-0.32864,-0.33885,-0.353,-0.39559,-0.34613,-0.37256,-0.36902,-0.3878,-0.40958,-0.39125,-0.45902,-0.42048,-0.47606,-0.45112,-0.41675,-0.4305,-0.44563,-0.4262,-0.44184,-0.44485,-0.47014,-0.44449,-0.47875,-0.47227,-0.47557,-0.50412,-0.48053,-0.53531,-0.53702,-0.49025,-0.5142,-0.4952,-0.52532,-0.48934,-0.54598,-0.5365,-0.52549,-0.54724,-0.52394,-0.54722,-0.58252,-0.54815,-0.55158,-0.56092,-0.58239,-0.578,-0.58076,-0.58356,-0.58443,-0.59538,-0.58789,-0.58665,-0.62652,-0.63041,-0.59477,-0.64801,-0.64832,-0.63867,-0.62871,-0.63247,-0.6434,-0.65598,-0.68624,-0.64556,-0.68863,-0.64176,-0.72765,-0.7001,-0.68436,-0.64511,-0.69407,-0.66135,-0.70206,-0.72492,-0.72662,-0.72214,-0.72443,-0.70976,-0.72388,-0.7272,-0.70037,-0.70322,-0.7778,-0.72549,-0.77129,-0.7553,-0.77105,-0.75835,-0.75554,-0.76177,-0.77123,-0.79803,-0.75979,-0.78625,-0.75827,-0.81387,-0.78936,-0.8246,-0.82633,-0.81761,-0.82076,-0.78316,-0.8126,-0.81279,-0.8058,-0.83349,-0.79564,-0.83463,-0.84441,-0.80894,-0.86312,-0.83496,-0.83582,-0.84061,-0.86654,-0.85609,-0.84527,-0.86649,-0.88592,-0.87293,-0.88806,-0.84294,-0.87533,-0.88098,-0.86921,-0.89029,-0.8558,-0.88488,-0.88665,-0.87133,-0.86437,-0.91674,-0.90125,-0.91992,-0.91439,-0.89258,-0.90586,-0.88943,-0.91116,-0.90413,-0.93398,-0.91318,-0.89802,-0.96646,-0.91144,-0.92807,-0.97289,-0.95621,-0.94602,-0.94086,-0.96399,-0.94928,-0.93738,-0.9861,-0.95037,-0.95653,-0.96917,-0.96501,-0.94511,-0.96101,-0.93845,-0.96927,-0.9928,-0.95718,-0.9888,-1.0044,-0.97937,-0.96806,-0.94749,-0.95718,-1.0179,-0.97881,-0.99355,-1.0026,-0.96121,-0.9848,-1.008,-0.93715,-0.97961,-1.0118,-1.0042,-0.95737,-1.0132,-0.99087,-0.99634,-0.97322,-0.98435,-0.98192,-1.013,-0.99346,-0.98876,-0.97204,-0.99737,-0.9917,-1.017,-1.0165,-0.99477,-1.0127,-0.98443,-1.0246,-1.0301,-0.97798,-0.99328,-0.99792,-0.98225,-1.0439,-1.0111,-0.97635,-0.99342,-0.98427,-1.0002,-1.0169,-1.0001,-1.0005,-1.0066,-1.008,-0.99955,-1.0273,-0.99807,-0.973,-1.0058,-0.97101,-0.97737,-0.97186,-0.97725,-1.0121,-1.0349,-0.99816,-0.98682,-1.0133,-0.98785,-0.95345,-0.98262,-0.99887,-1.0073,-1.0138,-0.97107,-0.99741,-1.0124,-0.96603,-0.97221,-1.0013,-1.0044,-0.97196,-0.97804,-0.98609,-0.95878,-0.97542,-1.0007,-0.96179,-0.97715,-0.97975,-0.94128,-0.95536,-0.95999,-0.95437,-0.9437,-0.95273,-0.94935,-0.96951,-0.95558,-0.93167,-0.94023,-0.94316,-0.94153,-0.94876,-0.92818,-0.93739,-0.94236,-0.90311,-0.92041,-0.96859,-0.92254,-0.94688,-0.92106,-0.88876,-0.87983,-0.94133,-0.93788,-0.95037,-0.93027,-0.91482,-0.93484,-0.89649,-0.90694,-0.87556,-0.86946,-0.87363,-0.90745,-0.87498,-0.86725,-0.89151,-0.86276,-0.87192,-0.86605,-0.87561,-0.85663,-0.87095,-0.83132,-0.84876,-0.83795,-0.84354,-0.87778,-0.85921,-0.85195,-0.85,-0.84369,-0.85273,-0.81004,-0.77664,-0.82888,-0.81545,-0.81808,-0.749,-0.79273,-0.80921,-0.79864,-0.83899,-0.80007,-0.76686,-0.7947,-0.8262,-0.75861,-0.74582,-0.77396,-0.78648,-0.77887,-0.76874,-0.7576,-0.72042,-0.74066,-0.71941,-0.76768,-0.73395,-0.72974,-0.714,-0.7421,-0.68122,-0.71684,-0.73324,-0.71144,-0.70184,-0.73764,-0.68137,-0.67875,-0.65773,-0.69102,-0.69873,-0.66292,-0.67217,-0.64864,-0.677,-0.63301,-0.67774,-0.64263,-0.65953,-0.63442,-0.65515,-0.61452,-0.58538,-0.6102,-0.59724,-0.61067,-0.61301,-0.62886,-0.6034,-0.59924,-0.60962,-0.60302,-0.55035,-0.57365,-0.55436,-0.58241,-0.53507,-0.58423,-0.56756,-0.54184,-0.55728,-0.56435,-0.54951,-0.50001,-0.51827,-0.53345,-0.50036,-0.54313,-0.4861,-0.46856,-0.52018,-0.50241,-0.47939,-0.52214,-0.45197,-0.46477,-0.44413,-0.45809,-0.44423,-0.4512,-0.42059,-0.40631,-0.45144,-0.39854,-0.40878,-0.42684,-0.37196,-0.38153,-0.41285,-0.32955,-0.38786,-0.3589,-0.34394,-0.43973,-0.34876,-0.37802,-0.33183,-0.3506,-0.34547,-0.33455,-0.31812,-0.31113,-0.31199,-0.31982,-0.28363,-0.31823,-0.27176,-0.27656,-0.2525,-0.2785,-0.24246,-0.27376,-0.29212,-0.23817,-0.23888,-0.26667,-0.21413,-0.23185,-0.19898,-0.20107,-0.24189,-0.20944,-0.22041,-0.18878,-0.22333,-0.19174,-0.20786,-0.18968,-0.16871,-0.17378,-0.1584,-0.13425,-0.1624,-0.14416,-0.14534,-0.13624,-0.14361,-0.10426,-0.066486,-0.083381,-0.092777,-0.083847,-0.12965,-0.099269,-0.08671,-0.075242,-0.041466,-0.023272,-0.065158,-0.06036,-0.053323,-0.041046,-0.031645,-0.031121,-0.012209,-0.0013305,-0.0030958,-0.011976,-0.0028288,0.0011129,0.019998,0.037371,0.017106,0.0019373,0.061048,0.0037915,0.034202,0.058211,0.071196,0.088455,0.041949,0.08839,0.065868,0.12936,0.066369,0.099217,0.13176,0.12727,0.097992,0.10807,0.13575,0.11527,0.15074,0.15444,0.14518,0.16174,0.21538,0.18536,0.18923,0.2057,0.18925,0.19496,0.22874,0.22656,0.23128,0.24338,0.22678,0.24914,0.26141,0.26793,0.25721,0.24879,0.26497,0.2734,0.27487,0.27687,0.28051,0.33227,0.26876,0.29076,0.31505,0.34572,0.34218,0.32276,0.32751,0.33929,0.31649,0.37054,0.36922,0.30506,0.38035,0.37394,0.36955,0.38133,0.41222,0.35975,0.35942,0.39374,0.39198,0.4112,0.4022,0.42498,0.41388,0.43802,0.4363,0.45344,0.43689,0.48326,0.4881,0.44497,0.46431,0.46566,0.49129,0.44289,0.48307,0.43132,0.50899,0.52789,0.52238,0.50139,0.50879,0.5357,0.53481,0.51917,0.52801,0.54728,0.5634,0.53585,0.5508,0.5346,0.57018,0.56427,0.57174,0.5788,0.58241,0.61071,0.6077,0.63111,0.58394,0.62927,0.61347,0.57442,0.61129,0.61169,0.63833,0.64739,0.63761,0.63392,0.66008,0.64843,0.69243,0.67723,0.67757,0.63611,0.65146,0.66118,0.7137,0.68569,0.72449,0.6723,0.71257,0.70095,0.70719,0.72745,0.73543,0.71033,0.72992,0.70581,0.71787,0.71242,0.73512,0.7048,0.75557,0.75132,0.74399,0.77154,0.77765,0.77315,0.76924,0.75493,0.76894,0.82289,0.76984,0.80592,0.79945,0.79873,0.81321,0.82396,0.81215,0.78909,0.80929,0.80149,0.82085,0.8316,0.86035,0.82338,0.84598,0.86014,0.82957,0.82877,0.82896,0.84058,0.87929,0.8258,0.86142,0.85171,0.85645,0.8331,0.85139,0.89555,0.86009,0.87951,0.87732,0.86198,0.883,0.88043,0.91637,0.87715,0.91918,0.9285,0.91389,0.90916,0.88348,0.91324,0.91274,0.93905,0.9181,0.96221,0.8843,0.9484,0.94507,0.92971,0.91033,0.94162,0.91148,0.94445,0.95144,0.95518,0.92543,0.90926,0.95823,0.9516,0.96022,0.94561,0.92136,0.95176,0.98615,0.92583,0.95776,0.97636,0.95755,0.99239,0.9566,0.95845,1.0285,0.98787,0.95568,0.96642,0.97848,0.99981,0.94616,0.97839,0.95935,1.0023,0.96488,0.98967,0.9879,0.98523,1.0133,1.0211,0.95844,0.98707,0.97333,1.0019,0.99668,0.97041,0.98546,0.96678,1.0045,1.0249,0.99003,0.99175,1.0164,0.97234,0.98846,0.99571,0.99391,1.004,0.99208,0.99554,1.0192,1.0092,1.0236,1.0196,1.0134,1.0161,0.96456,0.99439,1.0049,0.97064,1.0007,1.017,0.97951,1.0311,1.0187,0.97427,0.99024,0.99698,0.98951,1.0048,0.98553,1.0072,0.99529,0.97509,1.0009,0.98144,0.99481,0.96213,0.98154,0.9917,0.99666,0.95242,1.0061,0.98268,1.0186,1.0086,1.006,1.0211,0.99738,0.96327,0.95672,0.9871,0.96592,0.99632,0.95137,0.97234,0.97083,0.90293,0.98158,0.99104,0.94748,0.9947,0.93815,0.96546,0.98304,0.95014,0.97041,0.95861,0.94482,0.95297,0.91606,0.9352,0.94995,0.95862,0.93632,0.93745,0.94723,0.91686,0.93209,0.93075,0.87247,0.91507,0.95109,0.95204,0.91217,0.88724,0.89518,0.91202,0.89172,0.90797,0.89639,0.9049,0.92313,0.91813,0.88933,0.88972,0.88968,0.89025,0.90842,0.90496,0.8674,0.8952,0.86174,0.8716,0.81796,0.87109,0.85997,0.83872,0.85619,0.83077,0.86536,0.82955,0.83002,0.85483,0.79856,0.83789,0.80972,0.8785,0.79188,0.80351,0.81817,0.82057,0.81941,0.79748,0.79982,0.83691,0.83884,0.80648,0.75661,0.80654,0.73828,0.79045,0.75836,0.74081,0.78047,0.77209,0.74948,0.74754,0.73795,0.79606,0.73885,0.73735,0.74386,0.75782,0.69683,0.73194,0.69872,0.73995,0.72858,0.6836,0.71317,0.68043,0.69561,0.68939,0.66085,0.70699,0.62501,0.71287,0.67799,0.67564,0.65714,0.65286,0.66928,0.62447,0.65021,0.65471,0.63763,0.6169,0.61448,0.65141,0.61328,0.56989,0.60871,0.602,0.57651,0.57685,0.60444,0.59539,0.57268,0.56759,0.55269,0.5177,0.55368,0.53816,0.54399,0.5472,0.50641,0.56145,0.53335,0.53136,0.57304,0.51207,0.46193,0.49059,0.53387,0.49605,0.52593,0.49324,0.45125,0.46922,0.48452,0.48147,0.50402,0.46772,0.44406,0.44087,0.44944,0.42182,0.40402,0.40179,0.40505,0.44009,0.43042,0.38118,0.35552,0.42048,0.39527,0.41021,0.34379,0.34799,0.36682,0.35819,0.36871,0.35332,0.30919,0.33685,0.28594,0.32858,0.31774,0.3188,0.33782,0.27864,0.32676,0.28139,0.28508,0.29633,0.25788,0.30341,0.26874,0.2688,0.24832,0.26985,0.22229,0.22765,0.23242,0.21644,0.22632,0.23979,0.19454,0.20454,0.17634,0.19095,0.18455,0.19991,0.20644,0.15406,0.1459,0.18629,0.15996,0.15724,0.16687,0.15517,0.11959,0.08715,0.11662,0.12642,0.093808,0.11557,0.096214,0.082916,0.070911,0.070031,0.046939,0.064834,0.039698,0.051938,-0.0090989,0.014094,0.019054,0.027513,-0.019081,0.037876,0.0067782,0.026081,-0.028659,-0.01687,0.0077466,-0.013937,-0.024478,-0.054391,-0.051311,-0.030462,-0.053723,-0.051567,-0.057646,-0.036187,-0.096867,-0.077938,-0.081827,-0.087759,-0.10263,-0.067858,-0.07818,-0.16391,-0.1264,-0.15115,-0.11887,-0.15079,-0.14899,-0.13587,-0.19458,-0.17283,-0.18233,-0.16458,-0.15717,-0.19133,-0.20523,-0.1807,-0.19798,-0.23606,-0.2651,-0.1943,-0.2391,-0.22754,-0.23393,-0.24918,-0.29949,-0.27016,-0.25062,-0.24766,-0.26684,-0.27012,-0.27756,-0.27357,-0.29459,-0.27071,-0.29697,-0.31859,-0.3178,-0.33925,-0.3239,-0.31714,-0.3383,-0.30974,-0.35205,-0.34586,-0.35028,-0.37367,-0.38193,-0.39406,-0.36714,-0.41023,-0.40716,-0.39199,-0.38049,-0.4074,-0.41791,-0.41094,-0.43259,-0.41633,-0.45803,-0.4469,-0.46717,-0.43799,-0.45068,-0.45653,-0.50039,-0.47106,-0.46667,-0.47428,-0.49267,-0.50511,-0.4863,-0.48994,-0.54178,-0.52422,-0.50448,-0.52445,-0.5159,-0.55412,-0.5331,-0.52125,-0.53861,-0.56049,-0.54624,-0.54916,-0.58174,-0.56051,-0.57438,-0.56178,-0.57835,-0.58952,-0.55659,-0.61311,-0.60453,-0.61862,-0.59829,-0.63867,-0.6436,-0.65597,-0.63749,-0.57716,-0.665,-0.67048,-0.64254,-0.69368,-0.6466,-0.62834,-0.67372,-0.66661,-0.66024,-0.68736,-0.67107,-0.71038,-0.69526,-0.70682,-0.74599,-0.72511,-0.69021,-0.75486,-0.74263,-0.73142,-0.72551,-0.7379,-0.75712,-0.75675,-0.75289,-0.76185,-0.75821,-0.75616,-0.74586,-0.72657,-0.79496,-0.74878,-0.76299,-0.74168,-0.79442,-0.79816,-0.77712,-0.77314,-0.80835,-0.79719,-0.78961,-0.82043,-0.78548,-0.819,-0.81324,-0.79095,-0.78508,-0.81863,-0.79885,-0.82628,-0.83828,-0.81926,-0.86108,-0.8382,-0.84187,-0.86209,-0.83766,-0.8653,-0.8562,-0.86402,-0.88113,-0.84129,-0.85149,-0.8576,-0.83855,-0.8484,-0.90266,-0.86556,-0.88324,-0.89377,-0.90884,-0.89985,-0.90768,-0.90505,-0.9508,-0.89845,-0.90873,-0.8787,-0.91153,-0.91922,-0.912,-0.93243,-0.92902,-0.93098,-0.92341,-0.91899,-0.92441,-0.95604,-0.939,-0.94355,-0.90152,-0.95697,-0.939,-0.93647,-0.93505,-0.93563,-0.95127,-0.94193,-0.95823,-0.97723,-0.9558,-0.95497,-0.96936,-1.006,-0.94575,-0.94867,-0.96005,-0.97594,-0.93602,-1.0223,-0.9704,-0.96424,-0.93692,-0.99947,-0.98951,-0.98501,-0.98552,-0.97726,-1.0118,-0.98623,-0.9892,-0.98459,-0.9758,-0.96462,-0.96478,-1.0057,-1.0149,-0.99004,-1.0014,-1.0064,-1.0228,-1.0075,-1.0141,-0.97113,-1.0189,-0.99373,-1.0221,-0.9853,-1.0075,-0.96691,-0.99852,-1.0069,-0.95389,-1.0227,-0.98545,-0.99437,-0.98505,-0.96729,-0.99277,-0.95279,-1.0004,-1.0002,-1.0002,-0.98573,-1.0498,-0.98939,-1.0015,-1.0022,-1.0035,-0.98726,-1.0189,-1.0075,-0.98547,-1.0089,-0.96512,-0.99586,-1.0008,-0.97255,-0.9582,-0.98226,-1.0124,-0.96748,-0.96337,-1.0065,-0.99923,-1.0233,-0.95043,-0.96,-0.9929,-0.96989,-0.97201,-0.97707,-1.0074,-0.9427,-0.97687,-0.97167,-0.96607,-0.9908,-0.97929,-0.9819,-1.0105,-0.97934,-0.96585,-0.95481,-0.99017,-0.96481,-0.98387,-0.96859,-0.98333,-0.97658,-0.9277,-0.95411,-0.93321,-0.96531,-0.93885,-0.94615,-0.95381,-0.95443,-0.93606,-0.94175,-0.94099,-0.95875,-0.92762,-0.9066,-0.92089,-0.93703,-0.91086,-0.93976,-0.94033,-0.94204,-0.88984,-0.90533,-0.88217,-0.90699,-0.92891,-0.89853,-0.90824,-0.86644,-0.89671,-0.8688,-0.88526,-0.86962,-0.90206,-0.89617,-0.86954,-0.82809,-0.87812,-0.86043,-0.89238,-0.86186,-0.86168,-0.84018,-0.86037,-0.86943,-0.84527,-0.85535,-0.84672,-0.86917,-0.86321,-0.85829,-0.86633,-0.81899,-0.81892,-0.8156,-0.82205,-0.82119,-0.79865,-0.78547,-0.7959,-0.80129,-0.7804,-0.78409,-0.78681,-0.79925,-0.77558,-0.79186,-0.76313,-0.77935,-0.74771,-0.75347,-0.76384,-0.77334,-0.76111,-0.76975,-0.74471,-0.7605,-0.70273,-0.74028,-0.76069,-0.67895,-0.71919,-0.7351,-0.69999,-0.68101,-0.71181,-0.68318,-0.66298,-0.73597,-0.6799,-0.70531,-0.67139,-0.64929,-0.65999,-0.63102,-0.64082,-0.6675,-0.67306,-0.66369,-0.6449,-0.66078,-0.6197,-0.62685,-0.6045,-0.60947,-0.61744,-0.63261,-0.62185,-0.60444,-0.62402,-0.60444,-0.57786,-0.56552,-0.56831,-0.56408,-0.5406,-0.53628,-0.5752,-0.58432,-0.53923,-0.50556,-0.57298,-0.55036,-0.52332,-0.52722,-0.52539,-0.50856,-0.51012,-0.51299,-0.49704,-0.4921,-0.45399,-0.50287,-0.503,-0.44831,-0.45484,-0.46694,-0.47862,-0.42958,-0.44938,-0.4779,-0.44888,-0.45371,-0.41972,-0.41414,-0.43587,-0.4073,-0.4329,-0.36315,-0.37515,-0.40805,-0.37746,-0.37841,-0.30686,-0.35881,-0.36657,-0.32586,-0.34928,-0.35251,-0.38246,-0.33804,-0.32426,-0.33077,-0.31603,-0.29478,-0.30427,-0.29591,-0.33003,-0.29596,-0.26488,-0.29893,-0.24077,-0.22361,-0.2437,-0.22412,-0.26299,-0.20281,-0.22843,-0.21445,-0.22351,-0.22458,-0.21033,-0.19894,-0.17656,-0.18838,-0.19658,-0.18816,-0.17261,-0.17158,-0.16031,-0.19969,-0.14354,-0.14564,-0.12902,-0.1669,-0.15438,-0.15868,-0.12882,-0.12354,-0.10512,-0.1022,-0.093357,-0.074221,-0.076466,-0.10635,-0.11104,-0.05018,-0.067394,-0.075794,-0.083803,-0.039845,-0.040561,-0.026671,-0.021022,-0.024559,-0.018012,-0.010052,0.0027339,-0.001442,0.028693,-0.0074003,0.013463,0.040282,0.031535,0.018928,0.0043962,0.023259,0.055657,0.08164,0.051008,0.079235,0.057537,0.086537,0.090659,0.065324,0.11932,0.086693,0.10087,0.10045,0.098365,0.12033,0.15146,0.1298,0.18297,0.17859,0.18829,0.19624,0.16591,0.17428,0.1793,0.14111,0.17317,0.2042,0.20262,0.20525,0.22816,0.23771,0.23082,0.24808,0.25959,0.23645,0.21877,0.28616,0.27445,0.26399,0.28047,0.26133,0.2906,0.29158,0.29816,0.30135,0.29665,0.31317,0.35665,0.36586,0.30527,0.35031,0.30501,0.32257,0.33961,0.36412,0.33797,0.36907,0.3805,0.3744,0.3999,0.42123,0.34861,0.38641,0.40171,0.42494,0.38031,0.42162,0.46731,0.43646,0.45095,0.41845,0.468,0.45627,0.45443,0.46411,0.48225,0.46035,0.43279,0.46738,0.49649,0.50817,0.4538,0.50029,0.49265,0.51998,0.51418,0.54794,0.49524,0.51053,0.5219,0.50165,0.57213,0.5697,0.54183,0.60143,0.56207,0.57126,0.58221,0.56493,0.61488,0.58464,0.58678,0.61064,0.60298,0.62068,0.66021,0.59774,0.61278,0.62822,0.6373,0.62804,0.61738,0.65868,0.67878,0.66263,0.67985,0.6756,0.66726,0.66693,0.6784,0.70769,0.68278,0.65943,0.67021,0.70108,0.72249,0.7575,0.70894,0.73699,0.717,0.74335,0.76332,0.75348,0.74711,0.73617,0.75282,0.72942,0.73546,0.74657,0.75794,0.7657,0.75622,0.76788,0.76436,0.76926,0.77025,0.79825,0.81249,0.75411,0.8094,0.82962,0.80058,0.78404,0.83474,0.7984,0.79244,0.80502,0.82906,0.81866,0.8527,0.84044,0.82294,0.84913,0.84315,0.83858,0.86066,0.87102,0.83477,0.84046,0.85019,0.88116,0.88964,0.87945,0.86086,0.88827,0.91661,0.88107,0.87713,0.90603,0.88113,0.91237,0.88219,0.91059,0.89286,0.90379,0.92486,0.92634,0.90066,0.93237,0.91201,0.92244,0.94037,0.91055,0.91527,0.9403,0.94535,0.94059,0.89978,0.96679,0.95194,0.93025,0.95,0.93623,0.90046,0.94116,0.96371,0.95616,0.93002,0.94364,0.98431,0.94821,0.97934,0.97717,0.93898,0.98069,0.97111,0.96951,0.99362,0.99585,0.99055,1.0018,0.98738,0.98118,1.0016,0.97056,0.98246,1.0324,0.96338,0.98614,0.98749,0.9855,0.98958,0.99701,1.0252,0.99103,0.99141,1.0015,0.99485,0.96708,0.991,0.96942,1.002,1.0116,0.99599,0.97494,1.0023,0.9764,0.9784,1.0197,0.94915,1.0055,1.0097,1.025,1.0292,0.97413,1.0231,0.99368,0.98272,0.98535,0.98869,1.0304,1.0082,0.98976,0.97086,0.98691,1.0251,0.99404,1.0088,0.98015,0.98215,1.03,0.97696,0.98782,1.0032,1.0094,0.96124,1.0026,1.0287,1.01,0.99029,1.0108,1.0042,0.98722,0.96017,1.0033,0.96165,0.97644,1.016,0.99568,0.98842,1.021,0.98878,0.99017,0.9975,0.99165,0.98426,0.97246,0.93681,0.98202,0.94941,0.99042,0.98351,0.94343,0.95296,0.95256,0.93216,0.97281,1.0046,0.97827,0.92825,0.93145,0.93137,0.94055,0.95926,0.93123,0.93308,0.95836,0.95553,0.95532,0.9429,0.88153,0.95017,0.92922,0.9453,0.93738,0.88117,0.87282,0.92468,0.93276,0.92414,0.91547,0.90895,0.92955,0.91731,0.89617,0.9391,0.88597,0.87348,0.93976,0.93303,0.89004,0.91176,0.89839,0.87765,0.89097,0.89512,0.84043,0.86937,0.84091,0.85789,0.88437,0.88751,0.83177,0.85377,0.87108,0.84087,0.89556,0.82356,0.83512,0.83954,0.82064,0.84488,0.82673,0.81035,0.81086,0.80357,0.83592,0.82443,0.80901,0.79744,0.79352,0.77531,0.81018,0.79493,0.84159,0.78037,0.77856,0.78723,0.76244,0.77471,0.76135,0.76486,0.782,0.77086,0.71735,0.78488,0.73363,0.74021,0.73475,0.70121,0.71646,0.73348,0.72039,0.72451,0.7055,0.71097,0.7369,0.68997,0.65796,0.7142,0.67121,0.68296,0.68374,0.63514,0.67261,0.62527,0.65461,0.65035,0.6334,0.67428,0.66676,0.6437,0.61476,0.61594,0.61728,0.62951,0.57929,0.60683,0.55346,0.60639,0.61651,0.59985,0.56749,0.61003,0.54988,0.58447,0.56391,0.59862,0.53858,0.53617,0.53882,0.5368,0.51983,0.50634,0.56082,0.5462,0.51733,0.51663,0.50366,0.52728,0.50233,0.51094,0.48032,0.45458,0.47666,0.46992,0.43336,0.44853,0.44282,0.43573,0.43508,0.43457,0.45636,0.43243,0.41639,0.42973,0.41279,0.43922,0.38423,0.39017,0.39582,0.38935,0.41472,0.3864,0.37414,0.37089,0.34452,0.33419,0.35842,0.32347,0.3126,0.30403,0.28714,0.36635,0.30084,0.31065,0.28688,0.26667,0.31594,0.33414,0.26864,0.2844,0.25869,0.25793,0.27665,0.19936,0.26426,0.24675,0.27157,0.22546,0.2589,0.20015,0.18921,0.20111,0.19987,0.16972,0.17416,0.16324,0.1589,0.16598,0.15385,0.12857,0.15662,0.13485,0.13984,0.15603,0.11068,0.12399,0.094255,0.12693,0.13168,0.075592,0.067223,0.069743,0.069299,0.071509,0.055484,0.054477,0.044832,0.081005,0.036266,0.04006,0.0089808,0.013086,0.001559,0.012424,0.033742,0.010913,0.010399,0.038888,0.018763,-0.001106,-0.023413,-0.042277,-0.083236,-0.024755,-0.017721,-0.047945,-0.067077,-0.062607,-0.11452,-0.070741,-0.046383,-0.092485,-0.10827,-0.11201,-0.11919,-0.071659,-0.12604,-0.12157,-0.15809,-0.1276,-0.13035,-0.15326,-0.22186,-0.17611,-0.14303,-0.14803,-0.17587,-0.20639,-0.21353,-0.18307,-0.18155,-0.18482,-0.2047,-0.2181,-0.22176,-0.22889,-0.24501,-0.24134,-0.2524,-0.24528,-0.27539,-0.2331,-0.25781,-0.30147,-0.29659,-0.30002,-0.28893,-0.28456,-0.25509,-0.29714,-0.29892,-0.30695,-0.3187,-0.35609,-0.3522,-0.34696,-0.33177,-0.31137,-0.38171,-0.35422,-0.35458,-0.3608,-0.39476,-0.37535,-0.41381,-0.39113,-0.40155,-0.43791,-0.40193,-0.39487,-0.39528,-0.42231,-0.41151,-0.44447,-0.43644,-0.49179,-0.4589,-0.47808,-0.46026,-0.46327,-0.50262,-0.49381,-0.47127,-0.50401,-0.51644,-0.46685,-0.49477,-0.50335,-0.55117,-0.53121,-0.52779,-0.54895,-0.49552,-0.55309,-0.53127,-0.54536,-0.53227,-0.54291,-0.60207,-0.59262,-0.5678,-0.59217,-0.57518,-0.59868,-0.62329,-0.56694,-0.60114,-0.59905,-0.60085,-0.62672,-0.65457,-0.64913,-0.63738,-0.64648,-0.6251,-0.59009,-0.68801,-0.65361,-0.6768,-0.66849,-0.62562,-0.65562,-0.67043,-0.68698,-0.66961,-0.69319,-0.68644,-0.68828,-0.68078,-0.67736,-0.7381,-0.71393,-0.72347,-0.71732,-0.72728,-0.70556,-0.73076,-0.7449,-0.72914,-0.76282,-0.76279,-0.7156,-0.76179,-0.74131,-0.77331,-0.79099,-0.79454,-0.78061,-0.78459,-0.80156,-0.79293,-0.7834,-0.79016,-0.82919,-0.80984,-0.82877,-0.79813,-0.78877,-0.83463,-0.83197,-0.829,-0.83314,-0.85893,-0.82944,-0.86739,-0.8412,-0.84234,-0.80849,-0.84051,-0.85057,-0.87138,-0.85232,-0.8813,-0.85266,-0.85705,-0.85329,-0.85311,-0.8618,-0.88403,-0.88554,-0.86709,-0.89767,-0.88736,-0.90897,-0.89487,-0.93718,-0.93833,-0.87887,-0.90207,-0.94765,-0.92394,-0.94692,-0.90438,-0.91335,-0.91966,-0.93559,-0.90639,-0.88095,-0.92115,-0.9431,-0.95212,-0.91,-0.89521,-0.9594,-0.92457,-0.95246,-0.96298,-0.92982,-0.95904,-0.97908,-0.96123,-0.96017,-0.94765,-0.95378,-0.93338,-0.96534,-0.96379,-0.92995,-0.98707,-0.97668,-0.98459,-0.97783,-0.96052,-0.97732,-0.96997,-0.99284,-1.0021,-0.97934,-1.0157,-1.0128,-0.9872,-1.014,-0.97878,-0.96803,-1.0035,-0.98557,-0.94077,-0.99991,-0.97804,-1.0031,-0.97997,-0.99011,-0.99895,-0.99869,-1.02,-1.0226,-1.0093,-1.005,-0.99523,-0.99302,-0.98799,-0.99661,-0.9879,-1.0069,-0.95443,-0.98859,-1.0009,-0.99723,-0.98154,-1.024,-1.0108,-1.0119,-0.96995,-1.0258,-0.99454,-1.0012,-1.0217,-1.0102,-0.96186,-1.0117,-0.98713,-0.97988,-1.0117,-0.98468,-1.0368,-0.96046,-1.0285,-0.99889,-0.99782,-0.97576,-1.001,-1.0139,-0.9662,-1.0103,-0.99207,-1.0175,-0.97713,-1.0234,-0.9761,-1.0029,-1.0348,-0.98379,-0.99655,-0.97976,-1.0062,-0.9669,-1.0185,-0.936,-0.9986,-0.95746,-0.97106,-0.96721,-0.98306,-0.96868,-0.97074,-0.95908,-0.95916,-0.98075,-0.98846,-0.95405,-0.96232,-0.96406,-0.96553,-0.96757,-0.94124,-0.95849,-0.9376,-0.9635,-0.93629,-0.95411,-0.92429,-0.91762,-0.96878,-0.94037,-0.9244,-0.91433,-0.92807,-0.93249,-0.9182,-0.96487,-0.93625,-0.9161,-0.93158,-0.92525,-0.93719,-0.91749,-0.91287,-0.91937,-0.92295,-0.88744,-0.91684,-0.86754,-0.89558,-0.86574,-0.92673,-0.90615,-0.91308,-0.90642,-0.8873,-0.88588,-0.89116,-0.90148,-0.88107,-0.83561,-0.90283,-0.90232,-0.87566,-0.86626,-0.86387,-0.82737,-0.83662,-0.86435,-0.83325,-0.83215,-0.85238,-0.83201,-0.83344,-0.80843,-0.80191,-0.82433,-0.80837,-0.78776,-0.79084,-0.7957,-0.78427,-0.82004,-0.77504,-0.8004,-0.8011,-0.79496,-0.75664,-0.7691,-0.72622,-0.7685,-0.77186,-0.74544,-0.78097,-0.7147,-0.75419,-0.7604,-0.70906,-0.7029,-0.74848,-0.69836,-0.71191,-0.7259,-0.70593,-0.73468,-0.66375,-0.71589,-0.69994,-0.70392,-0.70824,-0.68379,-0.69886,-0.66381,-0.635,-0.68525,-0.70073,-0.67149,-0.64255,-0.64559,-0.68247,-0.65144,-0.64643,-0.6309,-0.63138,-0.63523,-0.61864,-0.58997,-0.58855,-0.62898,-0.62094,-0.58562,-0.57687,-0.59842,-0.55982,-0.59655,-0.55376,-0.5966,-0.54749,-0.52628,-0.53375,-0.55589,-0.54828,-0.54296,-0.56039,-0.51275,-0.53152,-0.54294,-0.50708,-0.54133,-0.53424,-0.51142,-0.46862,-0.45053,-0.50258,-0.48614,-0.46119,-0.49088,-0.44064,-0.46202,-0.46543,-0.43207,-0.45131,-0.4789,-0.44617,-0.42429,-0.44718,-0.40194,-0.38953,-0.40957,-0.37344,-0.3941,-0.39479,-0.3788,-0.35062,-0.35799,-0.35347,-0.35794,-0.33351,-0.3308,-0.30253,-0.32104,-0.31977,-0.34082,-0.29662,-0.33608,-0.29276,-0.31827,-0.30399,-0.28319,-0.27507,-0.25913,-0.26987,-0.21331,-0.23994,-0.23564,-0.24749,-0.23058,-0.21052,-0.24534,-0.2314,-0.22033,-0.22635,-0.2053,-0.2024,-0.20699,-0.19246,-0.1679,-0.21033,-0.1555,-0.18194,-0.15343,-0.14145,-0.16856,-0.13827,-0.15462,-0.11877,-0.15598,-0.10348,-0.14372,-0.097009,-0.0682,-0.1155,-0.065198,-0.085908,-0.078552,-0.095801,-0.083737,-0.044568,-0.022784,-0.055798,-0.076101,-0.065412,-0.018902,-0.014798,-0.026379,-0.018895,-0.0038117,-0.011991,-0.03759,0.017128,0.038294,-0.023623,0.073462,0.016325,0.0063467,0.047046,0.025764,0.04,0.042749,0.087401,0.061692,0.061053,0.08611,0.1272,0.12482,0.10423,0.12021,0.14346,0.1353,0.097663,0.13102,0.11832,0.13278,0.114,0.16769,0.19202,0.18364,0.15803,0.14802,0.18414,0.19942,0.16073,0.19563,0.1912,0.17926,0.2439,0.19731,0.26102,0.23414,0.24744,0.21677,0.25286,0.28217,0.25453,0.24224,0.27725,0.27811,0.30921,0.30312,0.26031,0.28927,0.33727,0.36194,0.31633,0.33783,0.36486,0.30612,0.31931,0.37083,0.37298,0.38205,0.33845,0.36201,0.3413,0.40843,0.38599,0.34356,0.36719,0.38455,0.41195,0.42761,0.40299,0.4274,0.41822,0.43224,0.4385,0.44443,0.42713,0.48313,0.43197,0.44462,0.44611,0.45516,0.44873,0.48794,0.52618,0.49014,0.52712,0.49886,0.49909,0.48499,0.48502,0.50859,0.50748,0.53624,0.55507,0.53309,0.54705,0.55292,0.56961,0.56818,0.54266,0.54675,0.55199,0.57526,0.59023,0.59661,0.57035,0.60495,0.59038,0.63199,0.65235,0.63292,0.59356,0.61991,0.61699,0.62084,0.63832,0.6491,0.63286,0.63603,0.6731,0.6935,0.66676,0.66118,0.68461,0.66449,0.70268,0.68248,0.66269,0.69638,0.68966,0.67128,0.68448,0.69521,0.74631,0.70652,0.74506,0.71926,0.74544,0.75628,0.75811,0.74404,0.79312,0.72283,0.77874,0.79013,0.73943,0.76278,0.79399,0.76333,0.79432,0.7638,0.75862,0.78616,0.79271,0.80351,0.81446,0.78622,0.79434,0.78807,0.80436,0.8487,0.84958,0.82101,0.82139,0.85698,0.86858,0.87326,0.82035,0.83621,0.81632,0.84271,0.84696,0.83934,0.86912,0.89707,0.87534,0.88023,0.87735,0.87341,0.87954,0.87433,0.88397,0.92017,0.87082,0.94156,0.89814,0.89525,0.93395,0.89288,0.89569,0.91598,0.8804,0.88358,0.92665,0.94581,0.93093,0.95,0.91551,0.90141,0.94221,0.94168,0.91499,0.94011,0.94879,0.9436,0.92169,0.95164,0.93669,0.96248,0.92027,0.96474,0.9951,0.95265,0.9684,0.96034,1.0123,0.9616,0.9437,0.97643,0.98782,0.9444,1.001,0.97538,0.97297,0.98182,0.96547,0.983,0.9923,0.96723,0.99046,1.017,0.95546,0.95416,0.9944,0.98605,0.97897,0.97557,0.98942,1.0189,0.96611,0.97099,1.0423,0.98135,0.99978,0.97112,0.98669,0.99016,1.0001,1.0055,0.98271,0.98516,0.99354,0.97258,0.98647,1.0052,0.99635,0.97286,1.0124,1.0207,0.99615,1.015,1.0084,0.99092,1.0184,0.99465,0.97011,1.0298,1.0048,0.98233,0.98989,1.0243,1.0318,0.98765,1.003,0.98718,0.99487,0.98726,0.99846,0.9892,0.99677,0.99819,0.98321,1.0038,0.97014,1.0273,1.0147,0.9826,0.97538,1.0075,0.98521,0.99424,1.0293,1.0005,0.98491,0.99944,0.98434,1.0108,0.99012,0.97757,0.99745,0.96611,1.0014,0.97214,1.0115,0.95957,0.93765,0.99843,0.97009,0.96602,1.003,0.99211,0.99793,0.95712,0.95517,0.95792,0.95895,0.95789,0.95425,0.93523,1,0.95664,0.95574,0.92126,0.95627,0.99111,0.91583,0.92623,0.93291,0.8902,0.88968,0.91639,0.95005,0.93718,0.91032,0.91958,0.9295,0.94532,0.86807,0.89031,0.8977,0.89207,0.86459,0.87793,0.8703,0.88691,0.9134,0.84987,0.89505,0.91008,0.88759,0.8919,0.85863,0.81957,0.87878,0.83369,0.84746,0.87556,0.87778,0.8656,0.81251,0.88294,0.82715,0.84191,0.79102,0.83026,0.83345,0.84843,0.78981,0.80673,0.82783,0.83486,0.82274,0.79859,0.78972,0.78132,0.83545,0.77716,0.76234,0.7807,0.78536,0.80856,0.76779,0.78439,0.75989,0.77002,0.75475,0.77243,0.74197,0.78548,0.70997,0.74724,0.71586,0.70377,0.71948,0.75133,0.70769,0.69946,0.71656,0.70674,0.75146,0.69177,0.64391,0.68973,0.69264,0.72192,0.68748,0.66281,0.68523,0.63555,0.67011,0.66825,0.6496,0.62761,0.62788,0.63112,0.61503,0.61474,0.66097,0.59249,0.62314,0.61375,0.61054,0.61155,0.59204,0.58591,0.59561,0.58873,0.57142,0.56232,0.54963,0.56246,0.54676,0.54254,0.57304,0.54901,0.55356,0.49392,0.51094,0.51165,0.50679,0.51127,0.52114,0.49063,0.50738,0.48338,0.49724,0.44266,0.47393,0.48473,0.44676,0.44047,0.47432,0.4288,0.43422,0.46368,0.42186,0.43043,0.42368,0.42383,0.42003,0.41068,0.42935,0.38377,0.38073,0.36769,0.4186,0.37867,0.36307,0.39231,0.38134,0.32819,0.36785,0.38793,0.31465,0.33994,0.32249,0.31293,0.32153,0.32605,0.28692,0.31633,0.26774,0.27391,0.28221,0.27503,0.28213,0.25362,0.25386,0.25637,0.25076,0.2693,0.19882,0.23284,0.23674,0.21559,0.23953,0.18695,0.20697,0.21937,0.14556,0.1799,0.16189,0.19255,0.15521,0.17226,0.17516,0.13474,0.15892,0.15,0.13743,0.10758,0.12446,0.1271,0.13278,0.11585,0.15055,0.10099,0.073153,0.081299,0.042919,0.057185,0.059826,0.032035,0.017515,0.058501,0.0038118,0.051717,0.044028,0.0071526,-0.019904,-0.016677,0.015082,0.011157,-0.027585,-0.024811,0.013167,-0.002754,-0.058522,-0.040343,-0.043775,-0.029698,0.015355,-0.087934,-0.042263,-0.048389,-0.060099,-0.081356,-0.089274,-0.074883,-0.082992,-0.097974,-0.1169,-0.10437,-0.12295,-0.13875,-0.14772,-0.10846,-0.13851,-0.11466,-0.12483,-0.17319,-0.16859,-0.19204,-0.16662,-0.15759,-0.18063,-0.22712,-0.19548,-0.20208,-0.21469,-0.17655,-0.26648,-0.24452,-0.23771,-0.26003,-0.29669,-0.25398,-0.28055,-0.26762,-0.25262,-0.30322,-0.28891,-0.26499,-0.32013,-0.32669,-0.29233,-0.32871,-0.31425,-0.28025,-0.35508,-0.31211,-0.3229,-0.30513,-0.38472,-0.36378,-0.3826,-0.38046,-0.35115,-0.39308,-0.34642,-0.38455,-0.40981,-0.40103,-0.38885,-0.40061,-0.37574,-0.43589,-0.43758,-0.43041,-0.3977,-0.45154,-0.40421,-0.43652,-0.41812,-0.47677,-0.49812,-0.47585,-0.4829,-0.49736,-0.49531,-0.49013,-0.50111,-0.47753,-0.47273,-0.55708,-0.52341,-0.54375,-0.5424,-0.51523,-0.52996,-0.5653,-0.55594,-0.52893,-0.56843,-0.5793,-0.5783,-0.54784,-0.56106,-0.57297,-0.5472,-0.56905,-0.64435,-0.59061,-0.61189,-0.61042,-0.60628,-0.62803,-0.6233,-0.63143,-0.60955,-0.65484,-0.64878,-0.62986,-0.66054,-0.66792,-0.64518,-0.63633,-0.66497,-0.65303,-0.69155,-0.69263,-0.70387,-0.69426,-0.70601,-0.71546,-0.75067,-0.72748,-0.72969,-0.70871,-0.74776,-0.73376,-0.72663,-0.74806,-0.73333,-0.73316,-0.74872,-0.77796,-0.70934,-0.76613,-0.77497,-0.75436,-0.77573,-0.75389,-0.77091,-0.79149,-0.77214,-0.75522,-0.79242,-0.76415,-0.79549,-0.77018,-0.80262,-0.80768,-0.80099,-0.80015,-0.85064,-0.79294,-0.85421,-0.81389,-0.84204,-0.8288,-0.86162,-0.83898,-0.85816,-0.8663,-0.85264,-0.85986,-0.84907,-0.90071,-0.86601,-0.87939,-0.85228,-0.85743,-0.86507,-0.86426,-0.89439,-0.88772,-0.89481,-0.90359,-0.90423,-0.89176,-0.84507,-0.86261,-0.93019,-0.87714,-0.92125,-0.91435,-0.89965,-0.91189,-0.90913,-0.90926,-0.94583,-0.90724,-0.90576,-0.88951,-0.91738,-0.92979,-0.91382,-0.91686,-0.94582,-0.94096,-0.97598,-0.94032,-0.93783,-0.97224,-0.92722,-0.95825,-0.91246,-0.95142,-0.97446,-0.95508,-0.97335,-0.96608,-0.97909,-0.95897,-0.9546,-0.96221,-0.9849,-0.99054,-0.96359,-0.94607,-0.97037,-0.93824,-1.0267,-0.98773,-0.99207,-0.93276,-0.98741,-0.99087,-0.99943,-0.98747,-0.96938,-0.98538,-1.0025,-1.0025,-0.95395,-1.01,-0.99055,-0.97102,-1.003,-0.99808,-1.0117,-0.95852,-0.96254,-0.96965,-1.0196,-1.0195,-0.97394,-0.9894,-1.02,-1.0016,-0.99201,-1.0066,-1.0192,-1.0194,-0.99089,-1.0044,-0.9694,-1.0228,-1.0224,-0.97288,-0.9973,-0.97349,-1.0103,-1.0094,-1.0068,-0.96249,-0.97988,-1.0109,-0.95106,-0.98634,-0.98367,-0.98111,-1.0051,-1.0052,-1.0347,-0.98134,-1.0462,-0.97235,-0.9907,-0.97388,-1.0182,-0.99196,-0.97762,-1.0009,-0.97137,-0.9957,-1.0176,-0.95818,-1.0038,-0.98977,-1,-0.97514,-0.99554,-0.98222,-0.98468,-0.98954,-0.98938,-0.98516,-0.98572,-0.91916,-0.95053,-0.98251,-0.9599,-0.9637,-0.95987,-0.95934,-0.98356,-0.98539,-0.97233,-0.95615,-0.95298,-0.96444,-0.93886,-0.98006,-0.9855,-0.93994,-0.95108,-0.93588,-0.94419,-0.93018,-0.9248,-0.92971,-0.93109,-0.91465,-0.90488,-0.94563,-0.89608,-0.93025,-0.96021,-0.88293,-0.95611,-0.88533,-0.90806,-0.9084,-0.91697,-0.88495,-0.91985,-0.88275,-0.88644,-0.87478,-0.90572,-0.92479,-0.88964,-0.89915,-0.86673,-0.86422,-0.88903,-0.89099,-0.87184,-0.87965,-0.84574,-0.85119,-0.84591,-0.82658,-0.84719,-0.83995,-0.84349,-0.84099,-0.81373,-0.87941,-0.88,-0.83681,-0.81362,-0.7965,-0.8129,-0.82142,-0.83437,-0.82367,-0.80255,-0.83439,-0.81847,-0.81218,-0.79974,-0.81127,-0.76147,-0.7702,-0.77818,-0.82265,-0.73947,-0.75294,-0.7346,-0.75426,-0.78416,-0.75367,-0.73419,-0.74832,-0.74473,-0.76372,-0.70495,-0.73069,-0.70724,-0.69838,-0.70201,-0.71297,-0.68772,-0.70053,-0.67889,-0.69511,-0.66622,-0.70116,-0.6891,-0.64007,-0.66427,-0.6628,-0.67576,-0.67627,-0.67624,-0.66383,-0.69864,-0.64083,-0.63979,-0.63323,-0.64058,-0.6551,-0.62263,-0.59293,-0.57576,-0.61788,-0.59362,-0.54757,-0.5834,-0.58125,-0.53136,-0.54696,-0.54029,-0.57713,-0.58049,-0.53861,-0.55457,-0.54975,-0.47271,-0.53979,-0.53312,-0.51689,-0.53307,-0.4964,-0.52744,-0.46064,-0.53093,-0.48411,-0.4959,-0.4489,-0.45359,-0.4749,-0.47181,-0.50884,-0.40334,-0.451,-0.44568,-0.48867,-0.42662,-0.41237,-0.44083,-0.39808,-0.39403,-0.40014,-0.39561,-0.38046,-0.4077,-0.41296,-0.4095,-0.36548,-0.3517,-0.36553,-0.37791,-0.35924,-0.35235,-0.32471,-0.35634,-0.31266,-0.3288,-0.30178,-0.26712,-0.31058,-0.28763,-0.3323,-0.29174,-0.27583,-0.26504,-0.24974,-0.29413,-0.23812,-0.24612,-0.21592,-0.2627,-0.24248,-0.25854,-0.21349,-0.21425,-0.25614,-0.17569,-0.18112,-0.18374,-0.21882,-0.15096,-0.15464,-0.19856,-0.1457,-0.18075,-0.1425,-0.16783,-0.13545,-0.17716,-0.16968,-0.12208,-0.1478,-0.12344,-0.13819,-0.13653,-0.056187,-0.084576,-0.076642,-0.099898,-0.11599,-0.051525,-0.078975,-0.048645,-0.087652,-0.047566,-0.052129,-0.055448,-0.013747,-0.025929,0.011,-0.03141,0.022056,-0.025791,0.047191,-0.0026229,0.010516,0.03352,0.00067779,0.031951,0.050229,0.046434,-0.033452,0.062916,0.044622,0.071397,0.064768,0.088135,0.084644,0.050449,0.12756,0.078511,0.078792,0.11522,0.11068,0.080967,0.098177,0.14798,0.13191,0.14552,0.14815,0.17603,0.14985,0.1599,0.20855,0.17732,0.18529,0.19218,0.19394,0.19677,0.15832,0.20756,0.2623,0.20772,0.22146,0.23999,0.24189,0.23505,0.23619,0.22982,0.28448,0.2695,0.26883,0.26996,0.32859,0.29036,0.29887,0.3449,0.31995,0.29759,0.29021,0.34968,0.31603,0.34275,0.32535,0.34947,0.36695,0.35004,0.35375,0.38202,0.38789,0.34713,0.4078,0.43018,0.40472,0.42483,0.39199,0.3954,0.42502,0.41275,0.4391,0.39348,0.44294,0.45942,0.47251,0.40009,0.49469,0.46605,0.46715,0.50447,0.47684,0.49903,0.46491,0.51943,0.53308,0.50099,0.53159,0.52847,0.50957,0.5171,0.54645,0.51499,0.55114,0.58387,0.55289,0.53557,0.57525,0.56459,0.62924,0.57273,0.57278,0.60031,0.6203,0.61641,0.59961,0.57854,0.6339,0.6335,0.58374,0.6412,0.63585,0.63033,0.657,0.62567,0.64642,0.6606,0.64267,0.64877,0.66895,0.63756,0.69849,0.68782,0.71042,0.70687,0.71122,0.71022,0.69473,0.6898,0.68638,0.70041,0.69742,0.7059,0.71747,0.74428,0.74232,0.72153,0.75141,0.74834,0.74118,0.73313,0.76498,0.76265,0.7721,0.7421,0.80836,0.7718,0.78143,0.8127,0.80495,0.76774,0.80039,0.83477,0.81779,0.81098,0.85152,0.78278,0.80523,0.80861,0.8235,0.8374,0.8412,0.8566,0.82943,0.85214,0.80515,0.85765,0.85657,0.81772,0.88446,0.83063,0.83904,0.87688,0.85112,0.8992,0.87737,0.8863,0.89466,0.88377,0.88453,0.92676,0.86853,0.90526,0.89255,0.89542,0.87934,0.90657,0.90855,0.92971,0.90712,0.92126,0.93426,0.93805,0.90728,0.95132,0.89843,0.94362,0.92797,0.94508,0.94988,0.96317,0.92847,0.94202,0.94106,0.9453,0.94442,0.97957,0.92808,0.96344,0.94657,0.93019,0.95994,1.0057,0.92433,0.98793,0.97672,0.9851,0.96168,0.96228,0.97751,0.9938,0.97857,0.99416,0.95201,0.97223,0.97799,0.98534,0.9596,0.96091,0.96633,0.95899,0.95789,1.0153,1.01,1.015,0.99361,1.0063,0.9672,0.97528,1.0091,0.97582,1.0102,0.96502,0.96358,0.99019,0.9723,1.0071,1.024,0.97841,1.0049,1.0215,1.0115,1.0404,1.013,0.97661,0.99766,0.97969,0.95868,0.9917,1.004,0.99717,0.9572,1.024,1.0115,1.0018,0.9942,0.95703,1.0001,1.0091,0.99822,1.0112,0.97773,0.97489,0.98782,1.0145,0.99914,0.9748,1.0027,0.99749,1.0053,0.97151,0.94434,1.0133,0.97107,0.95927,1.0199,0.99825,0.96863,0.9596,0.98845,0.99279,0.97254,0.97045,1.0178,1.0034,1.0012,0.99053,0.9794,0.96844,0.98712,0.99615,0.9668,1.0085,0.96108,0.97221,0.95745,1.0121,0.99277,0.93245,0.93257,0.99139,0.9431,0.94524,0.96678,0.96107,0.93088,0.94081,1.02,0.92116,0.95406,0.95508,0.94379,0.95243,0.91649,0.92987,0.95527,0.90778,0.94291,0.89564,0.91428,0.92656,0.94033,0.90471,0.91135,0.88138,0.91796,0.88589,0.90566,0.89745,0.91209,0.92582,0.89997,0.87729,0.90773,0.8808,0.88295,0.91341,0.84688,0.88841,0.83906,0.88454,0.84542,0.8905,0.88859,0.82096,0.86565,0.88275,0.86266,0.84959,0.83907,0.81964,0.85342,0.8143,0.81005,0.81621,0.86323,0.83039,0.81522,0.81105,0.77306,0.79877,0.8188,0.80544,0.77976,0.80385,0.78006,0.83971,0.77177,0.79316,0.77502,0.75851,0.78486,0.74303,0.79505,0.76154,0.77409,0.75789,0.69132,0.7556,0.74046,0.7385,0.70523,0.74952,0.68894,0.74087,0.69511,0.70992,0.66291,0.6712,0.68536,0.68897,0.70586,0.67938,0.65614,0.65947,0.68275,0.67802,0.68872,0.65475,0.65797,0.65018,0.66407,0.63528,0.60003,0.62808,0.59714,0.62221,0.61453,0.63871,0.61224,0.64406,0.59597,0.59394,0.58665,0.5842,0.56424,0.56121,0.59973,0.54667,0.57429,0.58026,0.57002,0.53815,0.56668,0.53846,0.55748,0.54223,0.49019,0.5499,0.48814,0.50704,0.52721,0.48658,0.48976,0.46058,0.48321,0.49743,0.50135,0.42776,0.44508,0.43168,0.4104,0.44601,0.47869,0.46929,0.40688,0.42801,0.40768,0.36642,0.38511,0.37629,0.4373,0.41271,0.39505,0.32733,0.38399,0.39035,0.36586,0.36229,0.34406,0.34367,0.34883,0.3679,0.33025,0.34994,0.32011,0.28746,0.3187,0.28555,0.2977,0.2559,0.33146,0.27074,0.27774,0.25354,0.26498,0.25318,0.2509,0.25622,0.25034,0.2386,0.20952,0.25524,0.18473,0.23346,0.21427,0.18223,0.22359,0.19759,0.18259,0.16167,0.15535,0.16781,0.12786,0.152,0.12514,0.087655,0.13698,0.17197,0.12368,0.12499,0.12014,0.11337,0.14121,0.11545,0.11598,0.082251,0.096534,0.065292,0.12663,0.076892,0.087755,0.038531,0.04197,0.013433,0.022929,0.042525,0.045003,0.012936,0.018751,-0.039081,-0.04196,-0.00071108,-0.042544,-0.029427,-0.075728,-0.029749,-0.040229,-0.055373,-0.027484,-0.050796,-0.081798,-0.059629,-0.088465,-0.10978,-0.044689,-0.071627,-0.11855,-0.10807,-0.12752,-0.1148,-0.088819,-0.080059,-0.12846,-0.13978,-0.13346,-0.16876,-0.1856,-0.1316,-0.14899,-0.21251,-0.19056,-0.18733,-0.17562,-0.21871,-0.19536,-0.21111,-0.22389,-0.23028,-0.23214,-0.22027,-0.23538,-0.22217,-0.23326,-0.22685,-0.24981,-0.27429,-0.26959,-0.2449,-0.30702,-0.27129,-0.31252,-0.31149,-0.33095,-0.30989,-0.33343,-0.29695,-0.33003,-0.2914,-0.35722,-0.37361,-0.35525,-0.3646,-0.35923,-0.35298,-0.35682,-0.39992,-0.37087,-0.36225,-0.39678,-0.36948,-0.41471,-0.42732,-0.4238,-0.40176,-0.42197,-0.43445,-0.42381,-0.45207,-0.43527,-0.41862,-0.4533,-0.44229,-0.47076,-0.46509,-0.49073,-0.45914,-0.51773,-0.4858,-0.47154,-0.46918,-0.47732,-0.52725,-0.50484,-0.50578,-0.57211,-0.52729,-0.54027,-0.52648,-0.54643,-0.55982,-0.52701,-0.58229,-0.5663,-0.57695,-0.58792,-0.56647,-0.56695,-0.59285,-0.56257,-0.56607,-0.62312,-0.61257,-0.62024,-0.62525,-0.65742,-0.63346,-0.62142,-0.61903,-0.62981,-0.63666,-0.64084,-0.66312,-0.66906,-0.66019,-0.68517,-0.68983,-0.68527,-0.67127,-0.64965,-0.65671,-0.70322,-0.70194,-0.68325,-0.69594,-0.71948,-0.71281,-0.73644,-0.72061,-0.68217,-0.74695,-0.7645,-0.72767,-0.7518,-0.7404,-0.75337,-0.72891,-0.77312,-0.75215,-0.74797,-0.77626,-0.74954,-0.79232,-0.78004,-0.74218,-0.80267,-0.8049,-0.81564,-0.79039,-0.80335,-0.82914,-0.80847,-0.84738,-0.83274,-0.8173,-0.82273,-0.81709,-0.83359,-0.84316,-0.83647,-0.85201,-0.86258,-0.83058,-0.86199,-0.87422,-0.82681,-0.88509,-0.8571,-0.85153,-0.86559,-0.82641,-0.84967,-0.86361,-0.86674,-0.87807,-0.92531,-0.90901,-0.85625,-0.89754,-0.91221,-0.90008,-0.8768,-0.90366,-0.93758,-0.89748,-0.92438,-0.91733,-0.90392,-0.94276,-0.93658,-0.94809,-0.91903,-0.96771,-0.96163,-0.91427,-0.92154,-0.9354,-0.93205,-0.93027,-0.95799,-0.91398,-0.96038,-0.92173,-0.96898,-0.98334,-0.97792,-0.95813,-0.96464,-0.93973,-0.97176,-0.92496,-0.97584,-0.95672,-0.94003,-0.94172,-0.97315,-0.98186,-0.98922,-0.98426,-1.0021,-0.96071,-0.94043,-0.97095,-0.95828,-1.0193,-0.95544,-0.97433,-1.0281,-0.98268,-1.002,-0.99488,-1.0182,-0.98408,-1.0089,-0.97074,-0.98264,-1.0083,-1.0133,-1.0034,-0.98883,-0.99456,-0.96261,-0.94649,-0.9929,-0.97076,-0.96167,-1.0301,-1.0019,-0.98795,-1.0295,-1.0026,-0.97179,-0.99135,-0.95887,-0.99436,-0.99838,-1.0047,-1.0089,-0.96623,-1.0242,-0.98895,-0.99154,-1.0207,-1.0023,-0.97885,-1.008,-1.0036,-1.0087,-0.97966,-0.98055,-1.0209,-1.0226,-0.998,-1.0181,-0.98397,-0.98216,-0.99647,-0.99445,-1.0144,-1.0002,-0.99713,-0.99371,-0.97647,-0.99681,-0.96266,-0.96483,-0.98858,-0.98884,-0.96409,-0.96363,-1.0063,-0.99459,-0.98301,-0.98298,-0.97691,-0.9793,-0.99905,-1.0208,-0.936,-0.97056,-0.96168,-0.93757,-0.96703,-0.95268,-0.97619,-0.96372,-0.98939,-0.97245,-0.96952,-0.96741,-0.97651,-0.93406,-0.96761,-0.95825,-0.94627,-0.93048,-0.9239,-0.94986,-0.96418,-0.94147,-0.9612,-0.92585,-0.91333,-0.93798,-0.9269,-0.9166,-0.90285,-0.91849,-0.91926,-0.90937,-0.8774,-0.93052,-0.8702,-0.87926,-0.90359,-0.87887,-0.88656,-0.89118,-0.91756,-0.89037,-0.90605,-0.92284,-0.86166,-0.8973,-0.87605,-0.88367,-0.87134,-0.82157,-0.91504,-0.86194,-0.89006,-0.85972,-0.87354,-0.86102,-0.86309,-0.8612,-0.8581,-0.82894,-0.85292,-0.85273,-0.85296,-0.82566,-0.84405,-0.79095,-0.82721,-0.78514,-0.82806,-0.78761,-0.82327,-0.81501,-0.76175,-0.77402,-0.76594,-0.7999,-0.80122,-0.75111,-0.77556,-0.77103,-0.76026,-0.76433,-0.73667,-0.75655,-0.74764,-0.75182,-0.72375,-0.68975,-0.74718,-0.72664,-0.73608,-0.74727,-0.72113,-0.71306,-0.71016,-0.72573,-0.68848,-0.67986,-0.69352,-0.66586,-0.67362,-0.65013,-0.65904,-0.67524,-0.66904,-0.64659,-0.65473,-0.65965,-0.63357,-0.61864,-0.65518,-0.62081,-0.62911,-0.62936,-0.62309,-0.63672,-0.65293,-0.60679,-0.59621,-0.62267,-0.56251,-0.54571,-0.56203,-0.58344,-0.59993,-0.57787,-0.55702,-0.55084,-0.54781,-0.52906,-0.53605,-0.5449,-0.50534,-0.5306,-0.52135,-0.52058,-0.53858,-0.49704,-0.49565,-0.50175,-0.46729,-0.50703,-0.46428,-0.46753,-0.48683,-0.43829,-0.42582,-0.4952,-0.45792,-0.45588,-0.43847,-0.46222,-0.40458,-0.42767,-0.39754,-0.42982,-0.4141,-0.41069,-0.41546,-0.3928,-0.36661,-0.38808,-0.37757,-0.37655,-0.402,-0.366,-0.39126,-0.3688,-0.36854,-0.3284,-0.32668,-0.32459,-0.33571,-0.34206,-0.29567,-0.29869,-0.30068,-0.31721,-0.31216,-0.2687,-0.21834,-0.22607,-0.25969,-0.27145,-0.24481,-0.26837,-0.27198,-0.2069,-0.20953,-0.1989,-0.25266,-0.22306,-0.22326,-0.19197,-0.19115,-0.21962,-0.22622,-0.18921,-0.19198,-0.16018,-0.12167,-0.11721,-0.14899,-0.15952,-0.096741,-0.13665,-0.12697,-0.14892,-0.12745,-0.10769,-0.10911,-0.07972,-0.095878,-0.11592,-0.10206,-0.075543,-0.04581,-0.059046,-0.055418,-0.052125,-0.042752,0.012907,-0.039373,-0.003337,-0.022287,-0.019648,-0.036092,-0.018928,0.016313,0.037477,0.037886,0.032638,0.018946,0.032569,0.059704,0.046222,0.033208,0.08488,0.079047,0.068584,0.081448,0.069256,0.072147,0.12909,0.092964,0.095141,0.11573,0.10291,0.15564,0.12674,0.099259,0.14526,0.16716,0.1596,0.16827,0.14267,0.15063,0.14594,0.17826,0.18894,0.19414,0.24594,0.18955,0.17549,0.20592,0.20874,0.21198,0.25444,0.20459,0.23859,0.27678,0.25402,0.22504,0.24455,0.29476,0.27251,0.3055,0.26132,0.28551,0.29299,0.30455,0.31065,0.34231,0.30233,0.29961,0.30297,0.34553,0.3225,0.35044,0.36394,0.35523,0.39573,0.34725,0.3796,0.37572,0.37256,0.41673,0.42802,0.37902,0.41748,0.40551,0.38262,0.41022,0.42974,0.40941,0.4765,0.42048,0.46308,0.43663,0.4542,0.4267,0.4431,0.4735,0.48007,0.50985,0.49667,0.48223,0.513,0.48276,0.51266,0.49698,0.52767,0.49067,0.54067,0.5188,0.56555,0.51585,0.53425,0.55901,0.56571,0.53836,0.52958,0.57876,0.59213,0.58338,0.5958,0.60491,0.57544,0.57893,0.57379,0.59787,0.60388,0.59684,0.60254,0.63165,0.64559,0.67123,0.64882,0.64173,0.64126,0.64259,0.643,0.67093,0.68901,0.67784,0.71265,0.66062,0.6658,0.66549,0.69806,0.70247,0.69698,0.69672,0.73643,0.70048,0.73575,0.7633,0.70195,0.73855,0.73587,0.71222,0.76498,0.76795,0.77434,0.71655,0.77169,0.75676,0.72616,0.77992,0.76079,0.76124,0.7565,0.78556,0.78364,0.75374,0.79747,0.80749,0.81163,0.80445,0.80392,0.81053,0.78694,0.8606,0.84165,0.81697,0.85532,0.80804,0.8765,0.79203,0.85385,0.82492,0.80987,0.83905,0.89839,0.87544,0.86308,0.85357,0.8713,0.84278,0.89356,0.87658,0.84809,0.88125,0.88361,0.88222,0.89762,0.8861,0.88418,0.87673,0.88156,0.89177,0.89008,0.93007,0.90801,0.90977,0.92177,0.92348,0.91521,0.93796,0.94244,0.94126,0.88525,0.91454,0.96192,0.93283,0.91438,0.93026,0.93313,0.94382,0.97371,0.90107,0.96848,0.96288,0.93593,0.94243,0.97287,0.96224,0.97128,0.96035,0.9194,0.989,0.96599,0.94572,0.96421,0.98968,0.98633,0.99593,0.98172,0.97911,0.93033,0.97303,0.97799,0.97032,0.95507,1.0124,0.98811,0.98729,0.97136,0.99536,1.0001,0.96469,0.97277,0.98178,1.0018,0.99301,0.99596,1.0047,0.96372,0.96846,0.97595,1.0077,0.99134,0.9733,0.97806,1.0006,1.0254,1.0039,0.97536,0.98417,0.99822,0.98422,0.98829,1.0033,0.99923,1.0112,1.0375,1.0314,1.008,1.0155,1.0368,1.0114,0.99428,0.98676,0.99919,1.0096,0.9827,0.97461,1.0053,1.0319,1.0013,0.98096,0.9881,0.99502,1.0229,1.0057,1.0176,1.0098,0.97733,0.955,0.97029,1.0092,0.99681,0.98641,1.0008,0.96527,0.99352,0.99452,0.97516,0.95634,0.98144,0.98036,1.0145,0.95576,1.0049,0.93149,0.99562,0.98367,1.0054,0.93777,0.9566,0.95361,0.93321,0.94916,0.96947,0.97739,0.96466,0.96526,0.98373,0.93935,0.95335,0.95247,0.97322,0.9433,0.95505,0.93546,0.96312,0.95734,0.94836,0.93049,0.90492,0.93815,0.94442,0.92078,0.90836,0.89251,0.91647,0.93661,0.91016,0.91504,0.93438,0.93941,0.89287,0.90711,0.86456,0.91747,0.87999,0.90288,0.88099,0.87089,0.89973,0.89115,0.86136,0.87104,0.87617,0.89281,0.83032,0.86655,0.87175,0.84457,0.87913,0.85452,0.86983,0.85199,0.83207,0.83436,0.82515,0.848,0.84229,0.8621,0.82462,0.82726,0.82151,0.82164,0.79816,0.80519,0.81109,0.8285,0.76519,0.82347,0.78492,0.78978,0.78852,0.80673,0.76545,0.7439,0.77612,0.75989,0.76454,0.73461,0.70947,0.77276,0.73295,0.73733,0.73814,0.73033,0.74984,0.7461,0.68171,0.69871,0.71398,0.71022,0.67321,0.68103,0.71454,0.69279,0.6911,0.70002,0.67296,0.66486,0.66056,0.67408,0.68463,0.67019,0.62926,0.68862,0.63256,0.69243,0.66204,0.61331,0.60118,0.62446,0.64664,0.62627,0.5887,0.57922,0.58043,0.5813,0.57955,0.61167,0.56694,0.59233,0.56089,0.55944,0.60932,0.56737,0.55516,0.51492,0.55175,0.48768,0.52739,0.51044,0.5098,0.53198,0.52604,0.50691,0.50767,0.51727,0.46517,0.50127,0.50492,0.4616,0.48964,0.46864,0.47668,0.45336,0.45072,0.43048,0.44401,0.43614,0.39609,0.41814,0.39443,0.41873,0.38478,0.38293,0.39352,0.31589,0.3842,0.3567,0.37263,0.37848,0.35225,0.36886,0.38415,0.33005,0.32595,0.3324,0.31465,0.32071,0.32764,0.32344,0.30441,0.29888,0.29712,0.2791,0.297,0.26367,0.25955,0.26226,0.26595,0.27381,0.29624,0.23354,0.25648,0.24009,0.20785,0.19076,0.21686,0.18928,0.18084,0.20051,0.22354,0.18116,0.16972,0.1886,0.15478,0.15888,0.16194,0.11524,0.14617,0.17681,0.15087,0.14712,0.16152,0.11135,0.088443,0.081485,0.060797,0.081344,0.10843,0.03564,0.06338,0.10459,0.09869,0.042019,0.032225,0.055063,0.058059,0.037562,0.027986,-0.010109,0.0016165,-0.019897,-0.030339,-0.012621,-0.0033071,-0.022041,-0.041623,0.0072706,-0.0053011,-0.050735,-0.012927,-0.013607,-0.079104,-0.085408,-0.034076,-0.071443,-0.088709,-0.077102,-0.093266,-0.11117,-0.11235,-0.079329,-0.090819,-0.12356,-0.12355,-0.17357,-0.12568,-0.16285,-0.13543,-0.1351,-0.14376,-0.14679,-0.16794,-0.20141,-0.15182,-0.16873,-0.18881,-0.16201,-0.21037,-0.1843,-0.2078,-0.22885,-0.23435,-0.21805,-0.24876,-0.22739,-0.24415,-0.20242,-0.27894,-0.26218,-0.29188,-0.26856,-0.32895,-0.28341,-0.28178,-0.31785,-0.30083,-0.32092,-0.3126,-0.33047,-0.35224,-0.35251,-0.32319,-0.35039,-0.34302,-0.34699,-0.32628,-0.388,-0.39835,-0.37975,-0.4213,-0.3776,-0.34898,-0.37079,-0.44849,-0.41959,-0.40381,-0.43061,-0.46067,-0.4444,-0.42901,-0.46306,-0.43981,-0.46498,-0.4259,-0.44691,-0.47594,-0.44288,-0.44779,-0.47797,-0.49506,-0.51617,-0.48585,-0.46408,-0.50408,-0.48269,-0.46889,-0.5634,-0.54516,-0.50252,-0.54532,-0.51439,-0.56904,-0.55627,-0.58792,-0.56738,-0.56505,-0.57495,-0.60232,-0.57365,-0.56573,-0.61005,-0.61548,-0.59991,-0.66758,-0.6398,-0.5936,-0.62187,-0.62419,-0.64161,-0.64052,-0.61981,-0.65303,-0.64378,-0.65667,-0.64531,-0.65721,-0.68282,-0.66032,-0.70123,-0.67245,-0.70362,-0.68695,-0.67613,-0.6645,-0.68814,-0.70536,-0.73364,-0.74333,-0.72898,-0.74077,-0.71209,-0.73617,-0.72466,-0.77925,-0.7148,-0.74092,-0.74602,-0.76594,-0.73601,-0.75875,-0.79301,-0.78787,-0.80976,-0.75672,-0.76899,-0.78202,-0.81074,-0.75757,-0.78443,-0.77836,-0.78133,-0.77689,-0.79262,-0.78373,-0.8133,-0.80511,-0.81337,-0.8402,-0.83864,-0.78209,-0.8406,-0.81093,-0.80622,-0.85855,-0.82175,-0.8622,-0.82757,-0.83726,-0.85222,-0.87875,-0.85525,-0.87825,-0.8833,-0.91703,-0.8586,-0.87908,-0.90116,-0.87634,-0.89067,-0.92875,-0.88,-0.88166,-0.90167,-0.91031,-0.86214,-0.90052,-0.90393,-0.91966,-0.91141,-0.89903,-0.93336,-0.92629,-0.93127,-0.91796,-0.92218,-0.91162,-0.94341,-0.9399,-0.97698,-0.93108,-0.95692,-0.91699,-0.90726,-0.91963,-0.96093,-0.93713,-0.96423,-0.92199,-0.95694,-0.95702,-0.95968,-0.9892,-0.98556,-1.0225,-0.93762,-0.9745,-0.99766,-0.98571,-0.94708,-0.9758,-0.97993,-0.95355,-0.98492,-0.96483,-0.97019,-1.0215,-0.96667,-0.9668,-0.987,-0.96858,-0.94579,-0.99442,-0.984,-0.94943,-0.97345,-1.0182,-0.98115,-0.98548,-0.99684,-0.99427,-1.0137,-0.99843,-1.0072,-0.9961,-1.0188,-1.0151,-1.0018,-1.0094,-1.0045,-1.0025,-0.99137,-0.97897,-1.0176,-0.99471,-0.98368,-1.0312,-1.0085,-0.99275,-1.0004,-1.0203,-0.99343,-1.0187,-0.98503,-1.0103,-1.0036,-1.0062,-1.0232,-1.0034,-1.0057,-1.002,-0.99153,-1.0142,-1.0297,-1.0004,-1.0036,-0.99285,-0.97069,-1.0142,-0.98363,-0.96417,-0.96842,-0.99716,-0.99312,-0.98844,-1.0023,-0.95948,-0.95007,-0.98402,-0.97413,-1.0241,-0.97609,-0.97972,-1.0034,-0.97151,-0.97884,-0.97755,-0.97317,-0.97519,-0.95197,-0.95555,-1.0079,-0.98421,-0.95463,-0.94747,-0.96583,-0.9705,-0.95472,-0.93411,-0.97634,-0.97724,-0.97262,-0.95704,-0.93488,-0.92843,-0.93926,-0.92691,-0.97262,-0.96692,-0.94308,-0.93033,-0.95301,-0.96312,-0.94112,-0.93998,-0.90743,-0.95136,-0.94883,-0.89296,-0.91999,-0.88424,-0.90401,-0.93547,-0.90608,-0.93227,-0.9143,-0.93221,-0.94904,-0.88927,-0.88144,-0.89494,-0.87114,-0.86548,-0.89484,-0.88493,-0.85821,-0.9116,-0.87159,-0.8744,-0.87885,-0.86212,-0.85865,-0.88622,-0.86083,-0.82869,-0.85262,-0.83155,-0.84152,-0.85002,-0.81645,-0.84272,-0.83298,-0.81578,-0.87654,-0.8558,-0.84389,-0.81974,-0.81895,-0.81023,-0.80317,-0.79812,-0.79493,-0.78477,-0.79083,-0.78917,-0.77179,-0.77398,-0.79316,-0.75796,-0.76262,-0.75858,-0.75024,-0.7474,-0.75787,-0.72809,-0.73232,-0.73359,-0.73742,-0.71718,-0.76637,-0.72702,-0.76328,-0.71215,-0.69417,-0.71708,-0.71373,-0.67591,-0.71031,-0.69246,-0.6569,-0.67832,-0.66078,-0.66007,-0.67042,-0.66943,-0.65328,-0.67894,-0.65181,-0.62787,-0.62592,-0.63404,-0.63319,-0.65983,-0.63266,-0.58768,-0.61054,-0.63543,-0.63573,-0.59951,-0.58266,-0.57733,-0.59525,-0.59705,-0.56872,-0.58669,-0.54277,-0.55408,-0.5274,-0.5354,-0.55305,-0.53815,-0.56606,-0.53092,-0.5374,-0.5325,-0.49541,-0.57403,-0.50656,-0.51474,-0.49423,-0.50911,-0.51725,-0.46072,-0.48346,-0.46713,-0.45704,-0.4731,-0.46722,-0.45774,-0.44669,-0.44171,-0.42544,-0.44263,-0.42571,-0.4383,-0.41972,-0.42994,-0.383,-0.38648,-0.41355,-0.37722,-0.43536,-0.39748,-0.41536,-0.36118,-0.35044,-0.37202,-0.35934,-0.35743,-0.32525,-0.3065,-0.33675,-0.33679,-0.33218,-0.30073,-0.29051,-0.29807,-0.3028,-0.27204,-0.26162,-0.26799,-0.25948,-0.22462,-0.2533,-0.26719,-0.28443,-0.23351,-0.22461,-0.24325,-0.21855,-0.23344,-0.22956,-0.21288,-0.19906,-0.21173,-0.16717,-0.18683,-0.20739,-0.16559,-0.18716,-0.17062,-0.14851,-0.17845,-0.1772,-0.18208,-0.13401,-0.13314,-0.12945,-0.16009,-0.11768,-0.090162,-0.10538,-0.090967,-0.11069,-0.052206,-0.092155,-0.055939,-0.06181,-0.076678,-0.052274,-0.044507,-0.042802,-0.047506,-0.011642,-0.045749,-0.00049586,-0.057081,0.014668,0.0046708,-0.021915,0.0020414,0.047944,-0.033665,-0.0023919,0.043466,0.051103,0.03855,0.029617,0.029318,0.10473,0.088205,0.081945,0.077347,0.056867,0.11222,0.097019,0.069462,0.084253,0.11105,0.13048,0.13127,0.13637,0.13381,0.16088,0.13792,0.15444,0.16396,0.19037,0.2059,0.16749,0.17215,0.22717,0.18809,0.2245,0.21906,0.24487,0.19441,0.2296,0.21647,0.21904,0.24512,0.20813,0.26061,0.30291,0.27349,0.29286,0.25573,0.26148,0.31988,0.32012,0.3227,0.30108,0.31649,0.31815,0.29472,0.31889,0.33031,0.32513,0.36127,0.32938,0.35818,0.35635,0.3821,0.39343,0.38774,0.34567,0.4076,0.40102,0.4214,0.37117,0.40819,0.40443,0.41858,0.46146,0.39125,0.45,0.44968,0.44273,0.452,0.4697,0.45307,0.44799,0.47866,0.48417,0.46544,0.44991,0.51915,0.49584,0.51896,0.50315,0.52381,0.53593,0.51833,0.51223,0.52847,0.54176,0.5484,0.52143,0.56399,0.53979,0.57815,0.54286,0.60282,0.57361,0.58293,0.59518,0.60036,0.59205,0.59792,0.61232,0.61965,0.61423,0.58632,0.61024,0.59761,0.61408,0.65069,0.63382,0.67003,0.68684,0.65462,0.66019,0.6495,0.68186,0.65867,0.67498,0.68222,0.67278,0.7011,0.68845,0.6855,0.69847,0.72329,0.73829,0.71491,0.70719,0.71895,0.73683,0.71744,0.76485,0.71616,0.70043,0.7426,0.73551,0.75579,0.70424,0.7502,0.77525,0.75764,0.73119,0.78433,0.79542,0.79417,0.79611,0.75248,0.78887,0.80498,0.79469,0.82579,0.83545,0.80167,0.78249,0.84053,0.80405,0.79006,0.7945,0.87311,0.8143,0.82432,0.81518,0.83396,0.86449,0.86123,0.82585,0.81893,0.85702,0.87153,0.84991,0.85378,0.90739,0.83114,0.90364,0.87254,0.90652,0.92219,0.87976,0.90297,0.91924,0.88824,0.92556,0.9087,0.90402,0.89142,0.92793,0.94448,0.90887,0.90885,0.90951,0.90603,0.90004,0.92604,0.87895,0.93785,0.93962,0.91927,0.98813,0.92161,0.94217,0.9091,0.90597,0.94184,0.98034,0.93564,0.94223,0.96571,0.94489,0.9803,0.96391,0.98711,0.95212,0.94282,0.92255,0.96986,0.98111,1.0101,0.97356,0.9739,0.94827,0.95963,0.98724,1.0221,0.98755,0.99714,1.0316,0.99104,0.99375,0.95874,0.9939,1.006,1.0179,0.96898,0.97845,1.0188,0.97165,0.96215,0.98657,1.0046,0.99045,0.97605,1.026,1.0055,1.0374,1.0201,0.98719,0.99042,1.0282,1.0059,0.97271,0.97189,1.0029,1.002,0.99837,1.0167,1.0038,0.9844,0.9835,0.99338,0.99633,1.0329,0.99995,1.0218,0.97044,1.0009,1.014,1.0319,1.0041,0.96892,0.97685,0.96319,0.9846,0.99424,0.99955,1.0065,0.99199,0.98678,0.99245,1.0309,1.0151,0.9968,0.96194,0.98692,0.96977,0.96923,0.95618,0.98606,0.99219,1.0188,0.9338,0.97468,0.989,0.99844,0.97621,1.0066,0.98334,1.0216,0.99538,0.94913,0.98539,0.98008,1.0006,0.96873,0.95279,0.95618,0.97349,0.9449,0.96725,0.9308,0.93187,0.98282,0.95878,0.96687,0.92577,0.96178,0.92357,0.92312,0.96047,0.93862,0.93935,0.94629,0.94795,0.92457,0.93592,0.92232,0.90806,0.92644,0.89306,0.90082,0.90408,0.87272,0.90814,0.90074,0.92873,0.8752,0.93424,0.92681,0.88597,0.84926,0.88441,0.90039,0.8665,0.86835,0.8887,0.8753,0.87418,0.89859,0.8692,0.85974,0.84177,0.89956,0.85001,0.85658,0.82095,0.88833,0.84309,0.83994,0.83977,0.82301,0.82508,0.82658,0.83932,0.79368,0.81952,0.82858,0.83893,0.80664,0.79305,0.79749,0.78515,0.78588,0.83721,0.74713,0.82539,0.77128,0.73927,0.76981,0.76011,0.7778,0.74947,0.76167,0.73561,0.75819,0.77642,0.71206,0.75607,0.70755,0.73221,0.69651,0.68453,0.71635,0.69112,0.71667,0.72124,0.69657,0.65746,0.7009,0.70065,0.67031,0.65244,0.68086,0.66012,0.64034,0.66015,0.6534,0.65408,0.66488,0.63057,0.60667,0.60696,0.64147,0.61599,0.59768,0.61303,0.64273,0.63333,0.5804,0.59382,0.58687,0.54198,0.58818,0.60129,0.55647,0.59886,0.58139,0.56098,0.53694,0.578,0.53691,0.52381,0.54623,0.55479,0.49783,0.54784,0.51002,0.50323,0.552,0.4945,0.50511,0.47461,0.50228,0.46302,0.47604,0.48004,0.45927,0.47504,0.46201,0.4624,0.41969,0.49351,0.45584,0.409,0.41912,0.40801,0.42541,0.38597,0.42655,0.4149,0.38765,0.38482,0.39661,0.39196,0.37698,0.36269,0.34848,0.3604,0.33529,0.35775,0.37739,0.30117,0.34898,0.34965,0.31607,0.3058,0.31038,0.30446,0.27041,0.30941,0.27846,0.31017,0.24752,0.24161,0.24234,0.24302,0.25437,0.19404,0.23825,0.23833,0.21563,0.19961,0.19431,0.21079,0.20186,0.16427,0.1569,0.16529,0.15793,0.21047,0.16111,0.17081,0.18368,0.17081,0.15034,0.1891,0.15856,0.12922,0.1583,0.10442,0.1218,0.11593,0.078577,0.085272,0.093916,0.10885,0.076703,0.083248,0.089335,-0.0017002,0.03757,0.059863,0.026664,0.078056,0.047364,-0.0014363,0.0067747,0.039474,-0.016492,-0.0070411,-0.037826,-0.0097145,-0.019761,-0.03911,-0.032036,-0.051549,-0.0093545,-0.015012,-0.035701,-0.01755,-0.074864,-0.1151,-0.060042,-0.091639,-0.10574,-0.12157,-0.10699,-0.10442,-0.094328,-0.13952,-0.14092,-0.17672,-0.11019,-0.14629,-0.15149,-0.14099,-0.16691,-0.15752,-0.16706,-0.2097,-0.20336,-0.18833,-0.15602,-0.19764,-0.25095,-0.19712,-0.21301,-0.19508,-0.21031,-0.21785,-0.24587,-0.20056,-0.24648,-0.27405,-0.25561,-0.26273,-0.27602,-0.29807,-0.30567,-0.26728,-0.28498,-0.30307,-0.3002,-0.32409,-0.3628,-0.31299,-0.34668,-0.33952,-0.35204,-0.34928,-0.37923,-0.33818,-0.36203,-0.383,-0.36601,-0.40774,-0.39466,-0.38602,-0.41054,-0.4187,-0.41093,-0.44163,-0.42028,-0.40795,-0.43941,-0.44626,-0.44194,-0.42617,-0.42097,-0.46,-0.49443,-0.44324,-0.48753,-0.48425,-0.4499,-0.49672,-0.44953,-0.48505,-0.51285,-0.52975,-0.53037,-0.51623,-0.52806,-0.54226,-0.49099,-0.57633,-0.54208,-0.51158,-0.53523,-0.56658,-0.5681,-0.48882,-0.54048,-0.59265,-0.56454,-0.56979,-0.6047,-0.58258,-0.62378,-0.61034,-0.63039,-0.63917,-0.61432,-0.65028,-0.64786,-0.62619,-0.61827,-0.62991,-0.63531,-0.6528,-0.65026,-0.66598,-0.70394,-0.66496,-0.66499,-0.65346,-0.6552,-0.68492,-0.65804,-0.70328,-0.69042,-0.72167,-0.7073,-0.69297,-0.69815,-0.74617,-0.7374,-0.72831,-0.76278,-0.76042,-0.74857,-0.73232,-0.76687,-0.75823,-0.75956,-0.73073,-0.77141,-0.69885,-0.74636,-0.77205,-0.75978,-0.78386,-0.76149,-0.77398,-0.76265,-0.7961,-0.80074,-0.79448,-0.79696,-0.79689,-0.78704,-0.82279,-0.83253,-0.80405,-0.82569,-0.79418,-0.84584,-0.82392,-0.83958,-0.84037,-0.87076,-0.83233,-0.83591,-0.81832,-0.84422,-0.86232,-0.82854,-0.81103,-0.88287,-0.89012,-0.90133,-0.87482,-0.87588,-0.88404,-0.87207,-0.9268,-0.8627,-0.93912,-0.91265,-0.89266,-0.90022,-0.9505,-0.88172,-0.93145,-0.88697,-0.91908,-0.90451,-0.92196,-0.93227,-0.90357,-0.92584,-0.92409,-0.92409,-0.94189,-0.94226,-0.94833,-0.91446,-0.9033,-0.95003,-0.90688,-0.96651,-0.95325,-0.98164,-0.9546,-0.91133,-0.96144,-0.96617,-0.94778,-0.99597,-0.95709,-0.95913,-0.98839,-0.99375,-0.96701,-0.97879,-0.96743,-0.95706,-0.98353,-0.97086,-0.97821,-0.95115,-0.96774,-0.98081,-0.9749,-0.99198,-0.96846,-1.0138,-0.95507,-0.9824,-0.97854,-1.0143,-1.0003,-1.0317,-0.98702,-0.98876,-0.99065,-0.98034,-1.0158,-0.97479,-0.97421,-1.0072,-0.9814,-1.0105,-0.96499,-0.9701,-1.0032,-0.99688,-0.97589,-1.0117,-1.035,-0.99042,-1.0145,-1.0102,-0.98342,-0.95176,-0.9987,-0.98527,-1.0043,-0.97224,-1.0202,-0.99989,-0.99118,-1.0166,-0.98775,-0.99728,-0.99917,-1.0048,-1.0014,-0.97886,-0.99375,-0.97232,-0.9757,-0.99162,-0.98885,-1.0379,-1.0297,-0.93778,-0.99657,-1.0045,-1.0055,-0.99512,-0.99285,-1.0269,-0.98286,-0.99897,-0.97362,-0.97786,-0.97736,-0.95058,-0.98974,-1.0041,-0.95158,-1.0085,-0.96028,-0.9728,-0.96828,-0.97956,-0.97178,-0.97926,-0.96927,-0.98399,-0.96541,-0.92,-0.9522,-0.97031,-0.96526,-0.97018,-0.96315,-0.94264,-0.96652,-0.92582,-0.9458,-0.91731,-0.96297,-0.9479,-0.92818,-0.93235,-0.97255,-0.92674,-0.94385,-0.93303,-0.9157,-0.90189,-0.90473,-0.92605,-0.94079,-0.92214,-0.91391,-0.87781,-0.93661,-0.91913,-0.90146,-0.89535,-0.89665,-0.93635,-0.90042,-0.87877,-0.90229,-0.91472,-0.84331,-0.88841,-0.86997,-0.88543,-0.87103,-0.83545,-0.86749,-0.88119,-0.83886,-0.84781,-0.88114,-0.84509,-0.84015,-0.85561,-0.8325,-0.86253,-0.83538,-0.84999,-0.83302,-0.83654,-0.79472,-0.84889,-0.82305,-0.79553,-0.8403,-0.81068,-0.7875,-0.82829,-0.75865,-0.77286,-0.80229,-0.78901,-0.77457,-0.79172,-0.77593,-0.75752,-0.78401,-0.74657,-0.74519,-0.73639,-0.76918,-0.73114,-0.76106,-0.71955,-0.70221,-0.72832,-0.71555,-0.76078,-0.74702,-0.71876,-0.68682,-0.72581,-0.70687,-0.72917,-0.70591,-0.69804,-0.6585,-0.67737,-0.6463,-0.65361,-0.67139,-0.66412,-0.65463,-0.6394,-0.63038,-0.62409,-0.62116,-0.6276,-0.64568,-0.63091,-0.61677,-0.63488,-0.63313,-0.60938,-0.6027,-0.60702,-0.58744,-0.61045,-0.61964,-0.57451,-0.58008,-0.58589,-0.55172,-0.59611,-0.55007,-0.50834,-0.5359,-0.57892,-0.52922,-0.52333,-0.55015,-0.50241,-0.53013,-0.52546,-0.50394,-0.48713,-0.51407,-0.51017,-0.49967,-0.49167,-0.47325,-0.48047,-0.5185,-0.47177,-0.45903,-0.46733,-0.43141,-0.45366,-0.40593,-0.42518,-0.40018,-0.40338,-0.36462,-0.39295,-0.40647,-0.41436,-0.3837,-0.3762,-0.39053,-0.343,-0.35271,-0.34424,-0.39189,-0.35469,-0.37275,-0.30601,-0.33486,-0.34761,-0.31255,-0.34274,-0.31105,-0.30276,-0.28649,-0.26916,-0.27064,-0.30326,-0.31601,-0.26465,-0.26941,-0.27564,-0.28006,-0.2491,-0.21242,-0.23748,-0.22933,-0.22974,-0.22691,-0.22736,-0.2133,-0.20764,-0.21084,-0.17216,-0.16282,-0.19074,-0.20624,-0.17415,-0.13123,-0.18185,-0.12002,-0.13064,-0.13278,-0.14385,-0.1511,-0.095948,-0.1315,-0.1424,-0.077992,-0.16667,-0.083627,-0.11338,-0.10271,-0.084755,-0.059484,-0.059322,-0.07295,-0.052674,-0.039847,-0.062543,-0.024701,-0.072018,0.0037475,-0.0292,-0.011299,-0.019937,-0.0085969,-0.04231,-0.022937,0.020677,0.0072358,0.033025,0.021348,0.0031256,0.042686,0.058545,0.054736,0.026937,0.037214,0.070333,0.08078,0.10867,0.076064,0.10904,0.10841,0.12554,0.10828,0.085778,0.14296,0.16127,0.15276,0.11849,0.12896,0.14981,0.14923,0.1418,0.19018,0.16108,0.19763,0.17732,0.18741,0.19321,0.1923,0.19928,0.20167,0.17792,0.2308,0.22994,0.20701,0.22219,0.24284,0.24459,0.28391,0.27876,0.25218,0.23039,0.26939,0.30687,0.30036,0.30558,0.33499,0.32668,0.31322,0.30967,0.31071,0.33003,0.35362,0.34049,0.35972,0.30579,0.34823,0.37813,0.35354,0.3851,0.38248,0.38044,0.40494,0.39572,0.40607,0.43338,0.39764,0.41627,0.43429,0.44199,0.477,0.44094,0.46835,0.454,0.48755,0.45109,0.45654,0.50251,0.46326,0.4535,0.51333,0.48247,0.49565,0.48991,0.51645,0.50058,0.51531,0.53934,0.51491,0.54269,0.54305,0.56406,0.50483,0.57736,0.57858,0.53047,0.58489,0.55666,0.55772,0.55395,0.58921,0.60759,0.61331,0.56857,0.59094,0.6068,0.60687,0.61356,0.60547,0.60694,0.62763,0.65465,0.65143,0.68398,0.64977,0.63109,0.66731,0.64472,0.68822,0.65972,0.68046,0.67238,0.71872,0.70413,0.70228,0.73154,0.72512,0.72235,0.708,0.6995,0.73022,0.69068,0.7164,0.72201,0.71858,0.73829,0.74453,0.77983,0.80418,0.75871,0.76165,0.76687,0.78727,0.80262,0.76408,0.74049,0.78244,0.75335,0.78889,0.78799,0.80073,0.79989,0.76308,0.81821,0.79982,0.79148,0.82272,0.76939,0.79632,0.82063,0.84537,0.83473,0.80182,0.82426,0.85901,0.84016,0.80585,0.87796,0.86688,0.8704,0.82714,0.89439,0.84997,0.88382,0.8965,0.90507,0.85416,0.86641,0.8784,0.83669,0.86851,0.89398,0.90509,0.90444,0.90656,0.92327,0.88607,0.91372,0.91929,0.92525,0.90602,0.89522,0.92184,0.947,0.9615,0.92093,0.94396,0.93529,0.93636,0.93012,0.95735,0.91398,0.97388,0.9402,0.94648,0.91634,0.95145,0.97059,0.9623,0.93945,0.9695,1.0181,0.96774,0.96914,0.98894,0.97538,0.97098,0.96681,0.99792,0.94906,0.93662,0.98621,0.98635,0.96104,0.9519,0.9632,0.98937,0.97138,0.96805,0.98056,1.0004,0.97267,0.98481,1.0049,1.0007,1.0119,0.97241,0.94109,1.0119,0.96707,1.0308,1.0042,0.97516,0.95867,1.0172,1.0182,1.0075,0.972,0.98061,1.0102,1.026,1.0058,1.004,1.0079,1.0314,1.0054,0.99859,0.99038,1.0095,1.0013,0.98905,0.99195,0.97866,0.93852,0.99358,0.99618,0.9752,1.0054,0.98466,0.98913,1.0103,0.98597,1.0383,0.96523,1.0034,0.98905,1.0329,1.0038,0.99266,1.0015,1.002,0.98869,1.0186,0.96787,0.99856,0.98359,0.95195,0.96584,0.99893,1.0085,0.98574,0.97911,0.9646,0.98129,0.96253,0.9976,0.98081,0.9542,0.97567,0.98031,0.96399,0.94488,0.99252,0.95536,0.93333,0.9383,0.94675,0.93041,0.9701,0.97888,0.94051,0.97886,0.96619,0.94061,0.92997,0.92425,0.91876,0.95754,0.95836,0.95486,0.92646,0.96399,0.90841,0.95397,0.93682,0.89216,0.93969,0.93495,0.94064,0.89378,0.91733,0.92993,0.90768,0.92776,0.9388,0.92079,0.90745,0.89293,0.88641,0.89459,0.90374,0.88968,0.90499,0.873,0.88748,0.85178,0.8744,0.88508,0.86353,0.88544,0.87056,0.83017,0.81338,0.84702,0.87676,0.8631,0.82563,0.82047,0.82914,0.81157,0.8307,0.83975,0.82325,0.86299,0.8325,0.79675,0.84709,0.75846,0.82178,0.79633,0.81262,0.76479,0.81965,0.78783,0.79681,0.79548,0.77502,0.78311,0.79228,0.75974,0.78653,0.77844,0.76178,0.79681,0.75588,0.74284,0.75192,0.71269,0.78181,0.73199,0.71458,0.70139,0.69861,0.7183,0.73596,0.7283,0.70952,0.69399,0.67996,0.69599,0.72424,0.68931,0.66926,0.68403,0.64321,0.633,0.64372,0.6633,0.6779,0.6702,0.61072,0.65165,0.62859,0.64128,0.64733,0.60902,0.62992,0.60919,0.62238,0.58801,0.5817,0.59116,0.58638,0.58975,0.60434,0.5683,0.57889,0.55072,0.55149,0.56633,0.54507,0.52485,0.5775,0.56229,0.53141,0.47977,0.51273,0.48402,0.49948,0.49259,0.5155,0.49008,0.45209,0.48434,0.48731,0.45785,0.43199,0.46118,0.48414,0.47399,0.42728,0.41718,0.42199,0.41369,0.44027,0.40611,0.45547,0.43467,0.41082,0.35588,0.40147,0.38865,0.38087,0.36415,0.37014,0.34255,0.31699,0.35592,0.36523,0.34163,0.36625,0.34074,0.32323,0.30517,0.32444,0.33531,0.30108,0.31268,0.27835,0.30424,0.26598,0.27456,0.26426,0.24726,0.27993,0.23311,0.24414,0.27696,0.19494,0.23076,0.22886,0.20629,0.23111,0.20857,0.19037,0.2302,0.20179,0.16701,0.16626,0.1311,0.15612,0.18055,0.16672,0.14375,0.15913,0.17149,0.1683,0.14815,0.1095,0.10905,0.15752,0.085772,0.10645,0.08634,0.11491,0.096468,0.072454,0.052061,0.051592,0.058133,0.010303,0.034358,0.024188,0.014769,0.066676,0.061115,-0.0058539,0.018279,0.00027509,0.024596,0.0091897,0.016915,-0.015369,-0.010432,-0.012194,-0.048504,-0.067536,-0.087001,-0.027127,-0.064719,-0.024107,-0.092827,-0.079219,-0.059235,-0.08409,-0.12214,-0.11126,-0.11481,-0.12682,-0.13285,-0.11244,-0.09456,-0.13969,-0.14533,-0.1562,-0.16891,-0.16714,-0.16872,-0.17469,-0.1806,-0.21744,-0.19912,-0.17889,-0.22096,-0.1841,-0.21371,-0.18438,-0.20842,-0.20856,-0.22023,-0.28416,-0.22458,-0.26686,-0.25378,-0.25088,-0.29029,-0.27273,-0.32215,-0.29247,-0.31598,-0.30288,-0.28444,-0.292,-0.30817,-0.33436,-0.3289,-0.34844,-0.34838,-0.32204,-0.3436,-0.36517,-0.36263,-0.3823,-0.34496,-0.35273,-0.37297,-0.40977,-0.44214,-0.42449,-0.37263,-0.3941,-0.43799,-0.41862,-0.46659,-0.42069,-0.44565,-0.45526,-0.43055,-0.45774,-0.44517,-0.46148,-0.46291,-0.48426,-0.44488,-0.45643,-0.47715,-0.50075,-0.52839,-0.45585,-0.52148,-0.50503,-0.5538,-0.49396,-0.5246,-0.51492,-0.5338,-0.5327,-0.54852,-0.53423,-0.56624,-0.57995,-0.58105,-0.5385,-0.53487,-0.59566,-0.60047,-0.5494,-0.58042,-0.56921,-0.59848,-0.5952,-0.6155,-0.61232,-0.63105,-0.61972,-0.57449,-0.67162,-0.67187,-0.61716,-0.63953,-0.66319,-0.62763,-0.64841,-0.67105,-0.64409,-0.68169,-0.69241,-0.7008,-0.70814,-0.69497,-0.72102,-0.72135,-0.74216,-0.67785,-0.66387,-0.73208,-0.72129,-0.72826,-0.78443,-0.7353,-0.7504,-0.77254,-0.74331,-0.75429,-0.76421,-0.76026,-0.77055,-0.78445,-0.75735,-0.77347,-0.79071,-0.7865,-0.76295,-0.73769,-0.7791,-0.818,-0.79465,-0.79745,-0.78675,-0.7986,-0.82588,-0.83499,-0.80983,-0.79598,-0.80576,-0.82238,-0.84374,-0.8339,-0.81502,-0.84177,-0.80307,-0.87499,-0.84237,-0.86484,-0.89828,-0.87366,-0.91781,-0.86631,-0.8444,-0.85993,-0.8501,-0.89518,-0.84649,-0.87732,-0.87008,-0.86346,-0.88999,-0.8924,-0.92251,-0.88485,-0.91447,-0.89995,-0.89297,-0.89195,-0.94012,-0.92885,-0.90508,-0.9035,-0.9337,-0.89616,-0.89018,-0.93122,-0.91069,-0.92465,-0.95018,-0.96718,-0.94344,-0.95584,-0.96193,-0.95911,-0.95257,-0.93429,-0.95557,-0.9436,-0.95259,-0.94596,-0.97623,-0.95159,-0.95328,-0.98254,-0.91458,-0.98029,-0.94774,-0.96517,-0.94543,-0.96493,-0.97918,-0.97433,-0.9622,-0.94728,-0.983,-0.96137,-0.9871,-0.96905,-0.97876,-0.97687,-0.97554,-0.97779,-0.97464,-0.96996,-0.97524,-1.0344,-1.0063,-0.99421,-1.0001,-0.99115,-0.98862,-1.0009,-1.0032,-0.99881,-0.98757,-1.0071,-1.0167,-0.98301,-1.0211,-0.99708,-1.0146,-0.99303,-0.98313,-0.9753,-0.99357,-0.98877,-1.0301,-1.0119,-0.99815,-1.0033,-0.96389,-0.98869,-1.0196,-0.99513,-1.0236,-0.98062,-0.98975,-1.021,-1.0089,-0.95944,-1.0196,-0.95901,-1.0033,-1.0015,-0.98618,-0.98878,-0.99976,-0.96608,-0.95767,-0.99995,-0.99151,-0.97761,-0.99337,-1.0075,-0.98514,-1.0123,-0.99194,-0.98195,-0.96271,-0.94586,-0.97659,-0.9446,-0.98653,-0.98838,-0.97013,-0.99637,-0.98419,-0.97881,-0.96274,-0.96664,-0.95252,-0.96473,-0.9686,-0.97718,-0.97508,-0.95074,-0.97314,-0.94124,-0.9691,-0.95367,-0.95786,-0.94544,-0.98487,-0.94733,-0.9275,-0.96044,-0.95786,-0.9459,-0.93459,-0.93274,-0.96902,-0.94499,-0.91974,-0.95159,-0.93927,-0.9243,-0.94774,-0.92778,-0.92983,-0.92388,-0.88696,-0.92693,-0.91895,-0.91854,-0.88592,-0.91894,-0.93553,-0.89066,-0.86443,-0.90161,-0.86799,-0.91128,-0.88854,-0.89398,-0.89532,-0.90854,-0.8713,-0.82682,-0.91186,-0.88992,-0.87243,-0.84996,-0.84779,-0.84521,-0.88064,-0.847,-0.84591,-0.83456,-0.85884,-0.84568,-0.86089,-0.84672,-0.84947,-0.80296,-0.80776,-0.80692,-0.79037,-0.81276,-0.81459,-0.78138,-0.82078,-0.81588,-0.79612,-0.7921,-0.78218,-0.76119,-0.79307,-0.77471,-0.80004,-0.76837,-0.74472,-0.75841,-0.76237,-0.74531,-0.71555,-0.72658,-0.73175,-0.79739,-0.71522,-0.723,-0.76496,-0.73847,-0.71091,-0.68646,-0.68193,-0.68594,-0.66531,-0.7105,-0.68783,-0.6929,-0.69867,-0.71405,-0.70789,-0.65864,-0.67605,-0.69163,-0.6459,-0.64097,-0.62804,-0.63986,-0.58083,-0.64971,-0.63706,-0.6365,-0.62208,-0.64849,-0.61897,-0.59068,-0.63506,-0.60394,-0.58805,-0.57591,-0.55255,-0.56857,-0.56335,-0.57757,-0.56848,-0.56894,-0.54864,-0.54619,-0.53834,-0.55249,-0.51575,-0.53918,-0.52818,-0.5282,-0.49413,-0.47012,-0.50986,-0.48485,-0.48142,-0.47196,-0.48799,-0.49548,-0.4936,-0.46041,-0.45508,-0.45726,-0.47933,-0.44858,-0.4383,-0.44715,-0.41552,-0.40897,-0.4201,-0.4427,-0.40957,-0.42117,-0.40528,-0.39016,-0.37103,-0.34812,-0.3882,-0.35829,-0.36352,-0.36184,-0.3749,-0.35657,-0.3606,-0.31691,-0.34671,-0.29705,-0.33842,-0.3237,-0.31989,-0.28679,-0.32031,-0.32807,-0.29726,-0.27892,-0.29704,-0.26404,-0.2878,-0.23407,-0.27789,-0.306,-0.22194,-0.23866,-0.25503,-0.22858,-0.22172,-0.23748,-0.21237,-0.18693,-0.22279,-0.1981,-0.18475,-0.14844,-0.20401,-0.15961,-0.18503,-0.16901,-0.14987,-0.14763,-0.15329,-0.13574,-0.14528,-0.14208,-0.10097,-0.11663,-0.10082,-0.092977,-0.10086,-0.055207,-0.077821,-0.060641,-0.10197,-0.040549,-0.070282,-0.0475,-0.043173,-0.066045,-0.051122,-0.062053,0.018107,-0.016785,-0.038699,-0.010225,-0.02809,0.012257,0.031582,0.019166,0.034287,0.0069722,0.018366,0.021796,0.029509,0.061353,0.032386,0.059086,0.06165,0.055088,0.10223,0.1254,0.088095,0.08008,0.1014,0.11645,0.12711,0.12104,0.13659,0.1043,0.12508,0.14502,0.15371,0.13386,0.15738,0.1953,0.17932,0.16988,0.16366,0.19374,0.22735,0.2378,0.21444,0.22047,0.22743,0.21286,0.24536,0.26796,0.2188,0.24547,0.26047,0.26675,0.22766,0.26482,0.27461,0.30646,0.30002,0.27365,0.28252,0.33889,0.28363,0.30323,0.30968,0.32792,0.31633,0.33224,0.31919,0.34785,0.35641,0.3775,0.36832,0.3642,0.39707,0.39321,0.39903,0.37315,0.41728,0.4157,0.40393,0.42286,0.40882,0.43516,0.41408,0.45409,0.46115,0.41851,0.44222,0.44783,0.47262,0.47066,0.48836,0.43609,0.51562,0.49017,0.47786,0.49266,0.49275,0.50864,0.49384,0.53136,0.49757,0.50145,0.51785,0.51556,0.54292,0.52885,0.56367,0.52422,0.54047,0.55154,0.57354,0.58569,0.60191,0.59657,0.58082,0.60402,0.59562,0.58289,0.57002,0.62334,0.61631,0.63025,0.66314,0.65679,0.64014,0.64234,0.66161,0.64886,0.68043,0.6571,0.65087,0.67062,0.64853,0.70005,0.68393,0.68278,0.68532,0.67354,0.70244,0.70946,0.72975,0.72613,0.73805,0.72613,0.7461,0.71114,0.73147,0.77684,0.74582,0.73907,0.73654,0.73898,0.75226,0.72746,0.7535,0.78355,0.83126,0.79154,0.76228,0.77452,0.78616,0.76822,0.78686,0.77348,0.80072,0.80922,0.81394,0.82594,0.81619,0.81365,0.84577,0.82857,0.80479,0.82393,0.83862,0.85895,0.81709,0.85132,0.83769,0.86077,0.81838,0.86062,0.85617,0.8783,0.86053,0.82739,0.85829,0.86476,0.86457,0.88901,0.90225,0.89142,0.91309,0.87682,0.87886,0.94012,0.92011,0.92876,0.87819,0.92294,0.92526,0.89017,0.92379,0.91766,0.92071,0.89718,0.89403,0.91263,0.92158,0.96862,0.91047,0.93024,0.93073,0.98593,0.90666,0.91429,0.91785,0.92604,0.97156,0.91815,0.92194,0.94001,0.91998,0.93451,0.91863,0.94375,0.97181,0.96109,0.95213,0.9684,0.94765,0.985,0.98779,0.9654,1.0034,0.99292,0.99626,0.95951,0.96438,0.9356,1.0138,0.99666,0.97134,0.98132,0.96067,0.97371,0.97843,0.96348,0.98856,0.9961,1.0261,0.96518,0.98803,1.0012,0.98802,0.99699,1.0075,1.0054,0.98968,0.96789,1.029,1.0364,1.0009,0.97512,0.97962,1.0222,1.0289,0.97365,1.0121,0.99886,0.9788,1.0405,0.97203,0.99591,0.97197,1.0243,0.99787,0.99043,0.98882,0.96573,1.0018,1.016,1.0091,0.96374,0.98823,1.0001,1.0604,0.99016,1.0215,0.97558,0.99994,0.99859,1.0305,0.96305,0.97422,1.0016,0.99681,0.99327,1.0032,0.97243,0.96325,0.95802,0.99094,1.0041,0.98162,0.98019,0.99861,0.98506,0.96294,0.9843,0.98096,0.97462,0.988,0.9719,0.99277,0.99719,0.93981,1.0011,0.96998,0.97134,0.97417,0.98787,0.9621,0.93277,0.9935,0.95975,0.95246,0.96602,0.98094,0.99135,0.94326,0.93011,0.93534,0.95245,0.9401,0.92736,0.92657,0.90438,0.92486,0.92354,0.93138,0.94738,0.9245,0.94798,0.94523,0.90605,0.90425,0.91894,0.92716,0.91627,0.92844,0.90864,0.87447,0.87624,0.88098,0.90508,0.89385,0.8869,0.8649,0.89967,0.90111,0.85932,0.87451,0.85417,0.88043,0.84158,0.85834,0.83294,0.80648,0.86317,0.82252,0.82972,0.86991,0.82485,0.84216,0.8195,0.82991,0.819,0.82548,0.81583,0.77968,0.82517,0.81639,0.79028,0.79684,0.80985,0.81035,0.78865,0.79144,0.75994,0.77986,0.7773,0.7594,0.7653,0.7602,0.76048,0.76541,0.77239,0.71693,0.74543,0.74512,0.72645,0.73385,0.73238,0.71532,0.72422,0.74439,0.71507,0.69558,0.7258,0.70246,0.69457,0.68854,0.6618,0.6743,0.65896,0.68927,0.68076,0.65749,0.67844,0.64675,0.64514,0.67074,0.65779,0.60888,0.6017,0.63933,0.64718,0.61085,0.60353,0.58185,0.59379,0.60923,0.57284,0.61328,0.5904,0.5942,0.55739,0.5691,0.56053,0.57004,0.53912,0.55197,0.52597,0.54638,0.51592,0.54935,0.52515,0.51008,0.53354,0.47826,0.46663,0.51337,0.50962,0.48109,0.48725,0.50422,0.46563,0.46924,0.44401,0.45208,0.46244,0.43437,0.45465,0.45641,0.42546,0.44758,0.41333,0.4364,0.41759,0.43559,0.39231,0.40299,0.36279,0.36707,0.41815,0.38396,0.36129,0.34171,0.34826,0.37596,0.35181,0.3479,0.37649,0.28944,0.32768,0.32388,0.3504,0.27987,0.30647,0.32016,0.23876,0.27965,0.28692,0.29791,0.27578,0.27411,0.31146,0.25856,0.23819,0.2344,0.19329,0.25074,0.24865,0.20102,0.19987,0.20758,0.22334,0.17767,0.20007,0.16081,0.19223,0.19995,0.17415,0.1455,0.15174,0.13817,0.16262,0.11364,0.13331,0.11647,0.15512,0.099858,0.11747,0.10467,0.11474,0.081868,0.10719,0.12286,0.096376,0.079261,0.094526,0.088611,0.06952,0.036907,0.060025,0.029635,-0.0060719,0.016897,0.028828,0.017074,0.03594,-0.026405,-0.01484,0.012004,-0.0079209,-0.029457,-0.034216,-0.038794,-0.041714,-0.072147,-0.077001,-0.044689,-0.044517,-0.070125,-0.091374,-0.058319,-0.037616,-0.095511,-0.075833,-0.13396,-0.10719,-0.10793,-0.17275,-0.1217,-0.10458,-0.17296,-0.17444,-0.13341,-0.17566,-0.15212,-0.16617,-0.18506,-0.17454,-0.1772,-0.21099,-0.18009,-0.17827,-0.20988,-0.22728,-0.24776,-0.25773,-0.23243,-0.23325,-0.22251,-0.27536,-0.25534,-0.28204,-0.24373,-0.27713,-0.29592,-0.28148,-0.26853,-0.28764,-0.30483,-0.30215,-0.30022,-0.34394,-0.34404,-0.33864,-0.32925,-0.34826,-0.34264,-0.33114,-0.37554,-0.35693,-0.35725,-0.3793,-0.38501,-0.38174,-0.39124,-0.38686,-0.38929,-0.39724,-0.41073,-0.40392,-0.41244,-0.40033,-0.40671,-0.42078,-0.44114,-0.43594,-0.42352,-0.43663,-0.47035,-0.47196,-0.46253,-0.45053,-0.467,-0.49377,-0.51242,-0.48549,-0.53498,-0.51457,-0.52012,-0.51989,-0.5115,-0.54344,-0.54838,-0.5211,-0.55634,-0.52063,-0.53124,-0.5524,-0.51206,-0.56856,-0.57231,-0.58754,-0.56545,-0.57443,-0.55489,-0.57123,-0.60488,-0.62208,-0.61098,-0.60644,-0.62743,-0.65227,-0.64503,-0.64016,-0.6545,-0.62365,-0.64722,-0.63279,-0.67231,-0.65658,-0.67584,-0.64609,-0.69484,-0.67562,-0.68715,-0.70058,-0.70404,-0.68665,-0.67402,-0.72974,-0.73353,-0.69215,-0.72975,-0.71259,-0.70849,-0.70578,-0.75411,-0.75267,-0.72186,-0.72413,-0.74321,-0.74592,-0.73939,-0.78508,-0.74412,-0.74578,-0.76794,-0.78832,-0.81365,-0.78285,-0.7748,-0.79952,-0.78598,-0.81777,-0.79947,-0.82709,-0.77409,-0.80148,-0.81124,-0.82464,-0.80924,-0.83022,-0.86706,-0.82123,-0.81027,-0.83063,-0.86689,-0.84516,-0.81365,-0.81935,-0.85723,-0.85787,-0.83776,-0.86835,-0.86258,-0.90725,-0.86315,-0.88714,-0.88465,-0.85662,-0.87655,-0.88454,-0.87622,-0.91417,-0.90741,-0.87737,-0.89282,-0.92456,-0.94042,-0.91038,-0.88598,-0.87088,-0.93032,-0.92667,-0.91315,-0.89227,-0.92583,-0.93916,-0.90836,-0.94117,-0.9175,-0.92589,-0.892,-0.92875,-0.9093,-0.92433,-0.92272,-0.92606,-0.93455,-0.95147,-0.94862,-0.93956,-0.98489,-0.93371,-0.95116,-0.94454,-0.95955,-0.97266,-0.97044,-0.98552,-0.9861,-0.99311,-1.0009,-0.99571,-1.0046,-0.97437,-0.99192,-1.0097,-0.96638,-0.99076,-0.97665,-0.99174,-0.99249,-0.98083,-0.96302,-1.0059,-0.9658,-1.021,-1.01,-0.9798,-0.98185,-1.0106,-1.0038,-0.99814,-0.98855,-0.95796,-0.96378,-0.97462,-1.006,-1.0067,-0.98691,-1.0103,-1.0008,-1.0143,-1.0048,-1.01,-0.99074,-1.01,-1.0127,-0.99069,-0.98215,-0.97773,-1.0061,-0.9981,-1.0248,-0.97652,-1.0147,-0.95267,-0.98185,-1.0245,-1.0167,-0.99859,-1.0178,-1.0217,-1.0022,-1.0281,-1.0069,-1.0102,-0.98767,-1.03,-0.99439,-0.99642,-1.0194,-0.98949,-0.9999,-0.97636,-0.97629,-0.9857,-0.99183,-0.97964,-1.0025,-1.0147,-0.99083,-0.9507,-0.9805,-0.97825,-0.97897,-0.9933,-0.99107,-0.97842,-0.94733,-0.95429,-0.9693,-0.96709,-0.95572,-0.95828,-0.97436,-0.98827,-0.9421,-0.96694,-0.95921,-0.9409,-0.96308,-0.95498,-0.9545,-0.9684,-0.95055,-0.95824,-0.91992,-0.98721,-0.97461,-0.93073,-0.92521,-0.93307,-0.94823,-0.92248,-0.95651,-0.9423,-0.93027,-0.92867,-0.88336,-0.91285,-0.92135,-0.9449,-0.91463,-0.91996,-0.97281,-0.8884,-0.90154,-0.86883,-0.90227,-0.92139,-0.87604,-0.9008,-0.89482,-0.87031,-0.89665,-0.89722,-0.87481,-0.86729,-0.86361,-0.87286,-0.86182,-0.84993,-0.88842,-0.8426,-0.86756,-0.79556,-0.83703,-0.7986,-0.8423,-0.83203,-0.82474,-0.83354,-0.81728,-0.84517,-0.83619,-0.79641,-0.81432,-0.78741,-0.80574,-0.83701,-0.78987,-0.807,-0.7866,-0.80786,-0.78478,-0.7659,-0.78581,-0.77524,-0.78286,-0.7716,-0.76919,-0.76017,-0.79191,-0.78251,-0.74433,-0.76575,-0.71716,-0.7256,-0.76574,-0.72496,-0.73487,-0.70454,-0.71147,-0.73045,-0.68539,-0.71639,-0.71151,-0.72473,-0.69706,-0.66014,-0.66634,-0.68699,-0.68782,-0.6765,-0.63898,-0.65655,-0.65073,-0.67689,-0.61714,-0.66962,-0.64988,-0.65245,-0.61674,-0.65081,-0.63133,-0.63065,-0.59956,-0.62182,-0.60623,-0.61724,-0.56689,-0.6014,-0.59721,-0.59696,-0.60734,-0.58532,-0.57512,-0.55979,-0.53199,-0.55154,-0.57063,-0.55952,-0.54599,-0.53394,-0.58464,-0.56041,-0.52876,-0.50073,-0.51783,-0.56244,-0.52634,-0.46018,-0.47744,-0.45708,-0.47276,-0.48303,-0.46744,-0.49381,-0.46552,-0.43516,-0.46028,-0.44401,-0.47556,-0.40045,-0.43837,-0.40027,-0.39493,-0.41966,-0.43744,-0.40567,-0.37974,-0.41098,-0.3962,-0.38102,-0.35605,-0.36655,-0.36466,-0.32656,-0.3288,-0.33201,-0.33603,-0.33259,-0.37101,-0.2853,-0.34632,-0.33631,-0.29776,-0.31372,-0.27347,-0.31108,-0.2896,-0.28061,-0.26559,-0.2832,-0.28431,-0.26289,-0.26186,-0.2839,-0.25412,-0.23517,-0.23525,-0.24586,-0.22059,-0.23545,-0.20262,-0.20522,-0.22298,-0.20484,-0.16637,-0.2174,-0.1936,-0.17744,-0.18873,-0.15726,-0.14642,-0.14977,-0.12517,-0.10477,-0.15188,-0.11137,-0.10125,-0.14537,-0.10365,-0.10159,-0.073707,-0.086299,-0.086187,-0.043041,-0.047053,-0.074344,-0.10859,-0.053823,-0.070372,-0.038228,-0.013158,-0.005945,-0.049289,-0.028573,-0.037787,-0.01149,-0.021954,0.014806,-0.0020555,0.014632,0.040475,0.0036217,0.047446,0.076937,0.059904,0.073396,0.033419,0.10217,0.052819,0.066151,0.10061,0.085098,0.099174,0.0873,0.12868,0.13144,0.1373,0.12142,0.13425,0.1712,0.14673,0.15496,0.14249,0.16297,0.16159,0.16286,0.1606,0.16777,0.18071,0.18982,0.18577,0.18024,0.21227,0.24044,0.24059,0.25287,0.23443,0.25284,0.24496,0.27127,0.26074,0.26064,0.25848,0.27592,0.26648,0.30302,0.29741,0.31813,0.3161,0.30484,0.30712,0.31477,0.33314,0.34009,0.37903,0.3501,0.33152,0.34299,0.34923,0.33219,0.37714,0.39663,0.40424,0.40297,0.38768,0.35732,0.42755,0.3955,0.4279,0.42045,0.38934,0.39184,0.43065,0.41654,0.45164,0.42939,0.44275,0.46953,0.45997,0.47178,0.44924,0.51929,0.47677,0.50453,0.48658,0.50877,0.46506,0.48582,0.51999,0.48968,0.52066,0.56584,0.53421,0.54034,0.53144,0.55201,0.53277,0.58033,0.56472,0.5722,0.58352,0.60241,0.56223,0.61465,0.5637,0.63369,0.63416,0.61481,0.58445,0.64389,0.58912,0.65718,0.62593,0.64135,0.59451,0.64238,0.65188,0.6536,0.68774,0.69994,0.66596,0.66018,0.66618,0.68528,0.69248,0.7028,0.68459,0.70275,0.70989,0.7033,0.71945,0.71599,0.70044,0.73899,0.73595,0.71191,0.73492,0.7347,0.72352,0.73057,0.74631,0.7348,0.76127,0.75217,0.71997,0.76306,0.76453,0.82209,0.78469,0.76959,0.76482,0.82184,0.81506,0.79686,0.82043,0.79991,0.78796,0.80658,0.82103,0.81165,0.8323,0.81907,0.83689,0.83699,0.83438,0.84019,0.80941,0.86756,0.83071,0.85447,0.8816,0.86374,0.86936,0.8587,0.86631,0.87042,0.87553,0.8931,0.8757,0.91761,0.87417,0.85541,0.8876,0.90083,0.92725,0.86664,0.91415,0.88691,0.88566,0.9395,0.93487,0.94632,0.89801,0.91902,0.92795,0.91199,0.91923,0.909,0.93859,0.92212,0.92943,0.96877,0.93766,0.96314,0.93408,0.94341,0.92673,0.94277,0.9386,0.95743,0.93974,0.98425,0.95286,0.99656,0.92184,0.96789,0.96426,0.97698,0.97734,0.91481,0.98593,0.93591,0.94311,0.96267,0.97287,0.97956,0.96406,0.95932,0.98539,0.93721,0.99178,0.95701,1.0108,1.0137,0.9624,0.96254,0.98075,0.99709,1.0076,1.0004,0.99973,1.0175,0.99817,0.99784,0.97045,0.98027,0.98223,1.0042,1.0042,1.0167,0.98437,0.98747,1.005,1.0145,0.98687,0.98971,0.98588,1.0097,0.99486,1.0087,1.0183,1.0004,1.0136,1.0177,1.0094,0.96253,0.99611,1.0113,0.9841,1.014,0.99582,0.99916,0.97941,0.99086,1.0092,0.991,0.99565,0.99409,0.9772,0.99707,0.97736,0.9984,0.99283,0.98201,0.97372,0.97965,0.99317,0.9899,0.97309,0.94855,0.96504,1.0095,1.0025,0.97611,0.98043,0.97482,0.99398,0.97693,0.99075,1.0053,0.98157,0.99761,0.93791,0.90149,0.9843,0.96701,0.97617,0.99245,0.96268,0.97119,0.98086,0.96014,0.96885,0.96558,0.94604,0.93948,0.96125,0.94463,0.95973,0.92301,0.94919,0.93596,0.9547,0.94977,0.95994,0.95604,0.89544,0.92148,0.93037,0.92289,0.91323,0.96364,0.91076,0.91979,0.91745,0.93878,0.95061,0.88104,0.90978,0.89589,0.91101,0.90821,0.85108,0.89924,0.9154,0.91292,0.90511,0.90774,0.88765,0.8926,0.88224,0.87306,0.89643,0.89347,0.88069,0.84107,0.89364,0.81902,0.87196,0.85674,0.83951,0.80472,0.83681,0.81967,0.7975,0.80529,0.79678,0.79084,0.83577,0.81303,0.83331,0.7986,0.77378,0.79578,0.7865,0.7925,0.81484,0.83394,0.76749,0.77749,0.76667,0.77467,0.80424,0.7531,0.7237,0.74974,0.74075,0.74212,0.78905,0.77029,0.7422,0.75565,0.72786,0.71919,0.73408,0.69863,0.71822,0.68723,0.69485,0.71175,0.67235,0.70629,0.66779,0.66636,0.65854,0.66021,0.6783,0.66183,0.68054,0.66639,0.67623,0.67333,0.64082,0.61197,0.60646,0.61433,0.62998,0.59054,0.61557,0.60607,0.61472,0.61592,0.59412,0.58836,0.5815,0.52374,0.57243,0.56261,0.55532,0.56046,0.61575,0.57098,0.56901,0.55869,0.49076,0.56658,0.56537,0.51987,0.53022,0.52125,0.51764,0.51314,0.52416,0.48198,0.49872,0.52138,0.4903,0.47614,0.46743,0.45276,0.4752,0.46751,0.45003,0.41231,0.44774,0.42479,0.42753,0.42611,0.41379,0.38489,0.40514,0.40154,0.41743,0.40736,0.40146,0.32924,0.36723,0.38727,0.34562,0.35658,0.33299,0.29417,0.33844,0.3029,0.29812,0.34632,0.30639,0.31179,0.26984,0.27667,0.27229,0.32328,0.33229,0.25918,0.24574,0.24867,0.29718,0.25742,0.24134,0.269,0.22863,0.23217,0.25056,0.21638,0.22774,0.1903,0.23315,0.20392,0.1981,0.20076,0.17444,0.1735,0.18676,0.13086,0.16664,0.15294,0.14715,0.13549,0.16965,0.13412,0.14207,0.15399,0.10891,0.10854,0.11514,0.069447,0.077112,0.051374,0.11346,0.082148,0.054049,0.060819,0.10799,0.029232,0.050591,0.050727,0.061126,0.069887,0.006335,0.029029,0.082262,-0.024259,-0.015852,0.0079841,-0.012878,-0.058978,-0.0054814,0.0033731,-0.043727,-0.079324,-0.044991,-0.033994,-0.07895,-0.067569,-0.030065,-0.084561,-0.11882,-0.087527,-0.095646,-0.089838,-0.096336,-0.080614,-0.086791,-0.13625,-0.11619,-0.11205,-0.11968,-0.14921,-0.12087,-0.16073,-0.17841,-0.1763,-0.18872,-0.19133,-0.1828,-0.18848,-0.19155,-0.17768,-0.22987,-0.21683,-0.21736,-0.23552,-0.21868,-0.20443,-0.23105,-0.24674,-0.23746,-0.28302,-0.27075,-0.22857,-0.28092,-0.28863,-0.29327,-0.26122,-0.29244,-0.29203,-0.31136,-0.29612,-0.28851,-0.34498,-0.32667,-0.29347,-0.33353,-0.33675,-0.37029,-0.37341,-0.36122,-0.37406,-0.38519,-0.35861,-0.40688,-0.39138,-0.36081,-0.37147,-0.4249,-0.40808,-0.41976,-0.46003,-0.42399,-0.44041,-0.44863,-0.45324,-0.44788,-0.4603,-0.43371,-0.49627,-0.50607,-0.46521,-0.49234,-0.48064,-0.50299,-0.48175,-0.52234,-0.51888,-0.47539,-0.56264,-0.55285,-0.51451,-0.52906,-0.54159,-0.5262,-0.55743,-0.55462,-0.54205,-0.54674,-0.55626,-0.56609,-0.548,-0.54062,-0.56946,-0.60324,-0.60947,-0.59498,-0.61798,-0.63602,-0.60662,-0.63958,-0.58166,-0.6472,-0.61588,-0.66077,-0.65707,-0.65717,-0.59942,-0.65242,-0.68149,-0.66072,-0.69494,-0.64586,-0.67719,-0.69724,-0.71701,-0.71767,-0.68503,-0.71783,-0.69354,-0.699,-0.69791,-0.68725,-0.70541,-0.76705,-0.74245,-0.73303,-0.74414,-0.70234,-0.75556,-0.74935,-0.75135,-0.76876,-0.74304,-0.75939,-0.74708,-0.77036,-0.75381,-0.79678,-0.75705,-0.79263,-0.83505,-0.79429,-0.80181,-0.79833,-0.80685,-0.80267,-0.80287,-0.80592,-0.79337,-0.83668,-0.86167,-0.84111,-0.81666,-0.84427,-0.83483,-0.85637,-0.84187,-0.85407,-0.87129,-0.82934,-0.83456,-0.8641,-0.89303,-0.86102,-0.87779,-0.8549,-0.89688,-0.84672,-0.90713,-0.88027,-0.89622,-0.89252,-0.89445,-0.90824,-0.88538,-0.84936,-0.91505,-0.89953,-0.89971,-0.8896,-0.88081,-0.89974,-0.9487,-0.91233,-0.9053,-0.95231,-0.94772,-0.96555,-0.92385,-0.92557,-0.93455,-0.93759,-0.93816,-0.90669,-0.90783,-0.93627,-0.92587,-0.93006,-0.95804,-0.98253,-0.95305,-0.96981,-0.97427,-0.9681,-0.92814,-0.96077,-0.92538,-0.9892,-0.9273,-0.92534,-0.95433,-0.97854,-0.97011,-0.93857,-1.0018,-0.9808,-0.9943,-0.96973,-0.9779,-0.99388,-0.98347,-0.97376,-0.94375,-1.0007,-0.97832,-0.9521,-0.98706,-0.98011,-0.98343,-0.96348,-0.97197,-0.98649,-0.98661,-0.98436,-1.0065,-0.9803,-0.99245,-1.0188,-0.98532,-1.0008,-0.99592,-1.0149,-0.98012,-1.0137,-0.97055,-1.0236,-0.9846,-1.0085,-0.9968,-1.0158,-1.0196,-0.98677,-1.0117,-0.9748,-1.0396,-0.94898,-0.96577,-1.0017,-0.99097,-0.99364,-1.0141,-1.0297,-0.99373,-0.99491,-1.0147,-0.95883,-0.98617,-0.95317,-1.0031,-0.97758,-0.97469,-1.0051,-0.97674,-0.96742,-0.98509,-0.95597,-0.9831,-1.0079,-0.99661,-0.97744,-0.99203,-0.96558,-0.95917,-0.97619,-0.99075,-0.96828,-0.97181,-0.9746,-0.97783,-0.9927,-0.94626,-0.97004,-0.96262,-0.9917,-0.97113,-0.98234,-0.95722,-0.92504,-0.94257,-0.94287,-0.93433,-0.94288,-0.94811,-0.96848,-0.97258,-0.98495,-0.94482,-0.95984,-0.95899,-0.94435,-0.93723,-0.95284,-0.92187,-0.95494,-0.9342,-0.87514,-0.92459,-0.91356,-0.93784,-0.90025,-0.91807,-0.9517,-0.91932,-0.92016,-0.91879,-0.92559,-0.91574,-0.89323,-0.94908,-0.90227,-0.89736,-0.93216,-0.88534,-0.89154,-0.87778,-0.87037,-0.83125,-0.89063,-0.88821,-0.87096,-0.8936,-0.89585,-0.8724,-0.85523,-0.90033,-0.86678,-0.84137,-0.84497,-0.83608,-0.84105,-0.82902,-0.81809,-0.80801,-0.87423,-0.82953,-0.85123,-0.84501,-0.82327,-0.78927,-0.80224,-0.80319,-0.83769,-0.79482,-0.79037,-0.78038,-0.78209,-0.7788,-0.77319,-0.76556,-0.77077,-0.78331,-0.73992,-0.78089,-0.76949,-0.74923,-0.78947,-0.72912,-0.72757,-0.71513,-0.70868,-0.7158,-0.72905,-0.72249,-0.71286,-0.70782,-0.71892,-0.7059,-0.65205,-0.70703,-0.68624,-0.68352,-0.68309,-0.66386,-0.6804,-0.68091,-0.6917,-0.65331,-0.65247,-0.63571,-0.6224,-0.62914,-0.6594,-0.64499,-0.64131,-0.58646,-0.62149,-0.61274,-0.62178,-0.61064,-0.60712,-0.60865,-0.60028,-0.58631,-0.5882,-0.60766,-0.60214,-0.60238,-0.5872,-0.55267,-0.56551,-0.58333,-0.53025,-0.5275,-0.55557,-0.54085,-0.49759,-0.50309,-0.52376,-0.53985,-0.52012,-0.4717,-0.49858,-0.52692,-0.49874,-0.45647,-0.49559,-0.48938,-0.44892,-0.43975,-0.48845,-0.46951,-0.4135,-0.40781,-0.43121,-0.44629,-0.39121,-0.39262,-0.4532,-0.42994,-0.41878,-0.37769,-0.37754,-0.40612,-0.39199,-0.39175,-0.36504,-0.37462,-0.36321,-0.37508,-0.31744,-0.34349,-0.32723,-0.31846,-0.32284,-0.29687,-0.29398,-0.28801,-0.31633,-0.31129,-0.26411,-0.28792,-0.26593,-0.26221,-0.30059,-0.29654,-0.29031,-0.27894,-0.20382,-0.22031,-0.27113,-0.23567,-0.21411,-0.2191,-0.22577,-0.22079,-0.20612,-0.19995,-0.14036,-0.17397,-0.18992,-0.18427,-0.15708,-0.16201,-0.18251,-0.15303,-0.12912,-0.12814,-0.11849,-0.16558,-0.099529,-0.11464,-0.11332,-0.11894,-0.12673,-0.10743,-0.059375,-0.085561,-0.043019,-0.092833,-0.0021722,-0.077566,-0.047791,-0.063571,-0.027261,-0.035528,-0.0030135,-0.030726,0.010032,-0.041342,-0.017312,0.031555,0.024046,0.0089572,-0.01921,0.039374,-0.011608,0.042081,0.024917,0.033369,0.051469,0.065649,0.056928,0.051123,0.099793,0.055815,0.092017,0.036239,0.064443,0.090556,0.10249,0.10627,0.12972,0.15504,0.12942,0.15795,0.12327,0.14572,0.15693,0.16339,0.1817,0.15798,0.19167,0.19451,0.17042,0.22045,0.17844,0.22569,0.22273,0.20214,0.22959,0.20257,0.22653,0.22495,0.24425,0.27183,0.30297,0.24705,0.32016,0.27139,0.26287,0.29234,0.33324,0.28354,0.30126,0.32594,0.29208,0.29765,0.34525,0.31755,0.33814,0.31608,0.32934,0.34834,0.36507,0.35112,0.38574,0.36712,0.36119,0.40818,0.40722,0.37573,0.40282,0.41208,0.42375,0.43394,0.39646,0.39878,0.47669,0.42344,0.42503,0.44528,0.47279,0.43832,0.45219,0.48814,0.47604,0.46635,0.47314,0.46228,0.4786,0.48,0.5082,0.55793,0.50963,0.51972,0.53457,0.54078,0.55633,0.52141,0.52765,0.60829,0.53655,0.55015,0.60736,0.54506,0.55824,0.54873,0.59897,0.58009,0.6022,0.62321,0.57346,0.59758,0.59717,0.59355,0.61475,0.61114,0.64011,0.62912,0.66007,0.67573,0.66135,0.65627,0.66979,0.67717,0.68818,0.68046,0.66278,0.64761,0.67487,0.70345,0.70905,0.68349,0.66048,0.69535,0.6982,0.71338,0.70817,0.73864,0.70131,0.69363,0.70676,0.72615,0.73768,0.75091,0.74177,0.72835,0.77281,0.76246,0.74913,0.75808,0.74039,0.77411,0.7943,0.77789,0.76394,0.80669,0.79752,0.84505,0.80712,0.79781,0.79109,0.81298,0.80945,0.83232,0.79437,0.8213,0.82962,0.85303,0.83669,0.8285,0.8304,0.83867,0.83167,0.87016,0.88223,0.84674,0.84507,0.89095,0.86349,0.86924,0.88289,0.83545,0.88322,0.87735,0.90206,0.89476,0.8927,0.91005,0.89305,0.91565,0.93379,0.89975,0.93706,0.90021,0.91544,0.88734,0.90731,0.9545,0.90085,0.93121,0.92847,0.88089,0.92027,0.91722,0.93951,0.89751,0.95409,0.92341,0.926,0.96889,0.9078,0.9444,0.93115,0.94556,0.93869,0.9472,0.96358,1.0074,0.9563,0.99499,0.93989,0.93353,0.97682,0.92253,0.97928,0.97129,0.9777,0.9871,0.94496,0.99569,1.0013,0.96897,0.97259,0.98855,0.96441,0.962,0.9892,0.98107,0.9581,0.98504,0.9671,0.97892,1.0249,1.0047,0.99417,0.98804,0.99429,0.97414,1.0088,1.0105,1.0115,1.006,0.97172,1.0018,0.97053,1.0025,1.0086,1.0069,1.0059,0.9752,1.0065,0.99916,1.0048,0.99611,0.97509,0.99327,1.0404,1.0243,0.99573,1.0486,1.0181,1.0102,1.0229,1.0092,1.0012,0.97574,0.97022,1.0111,1.0019,1.0089,1.0019,0.99495,0.97534,0.98506,0.97473,0.98424,1.039,1.006,1.0378,1.0184,0.97797,0.99501,0.98455,0.99963,0.98983,0.95059,0.97148,0.97919,0.97905,0.93182,0.98924,0.95353,0.99105,0.98563,0.99124,0.98991,0.97961,0.96848,0.98538,0.9222,0.94485,0.94725,0.97524,0.97301,0.98486,0.97043,0.9475,0.95852,0.94878,0.94373,0.93284,0.93915,0.93874,0.92843,0.94437,0.92716,0.93145,0.95238,0.95983,0.94488,0.93907,0.92415,0.94934,0.94383,0.92826,0.90543,0.96188,0.93927,0.91821,0.91927,0.9244,0.91684,0.85953,0.89407,0.92751,0.90149,0.90748,0.88227,0.87677,0.90293,0.89082,0.89328,0.85226,0.86373,0.87239,0.8624,0.83767,0.86397,0.87216,0.8592,0.85017,0.83147,0.83138,0.83037,0.81626,0.86266,0.84475,0.80818,0.83697,0.83423,0.82008,0.81919,0.8177,0.85808,0.84518,0.81345,0.81106,0.82254,0.79449,0.73734,0.81958,0.76087,0.7971,0.77331,0.79115,0.79935,0.75164,0.77853,0.75604,0.76027,0.75137,0.72562,0.77158,0.73929,0.7137,0.74407,0.72781,0.69122,0.71078,0.7019,0.73858,0.71844,0.70257,0.69564,0.69396,0.64353,0.67689,0.67204,0.6786,0.63605,0.67747,0.69459,0.65002,0.64504,0.63951,0.67156,0.67044,0.6484,0.64872,0.60522,0.64244,0.62178,0.61068,0.60877,0.63711,0.6056,0.61761,0.60882,0.58986,0.59086,0.55017,0.56102,0.56115,0.57602,0.55181,0.60217,0.59814,0.57359,0.5413,0.53654,0.55476,0.50087,0.48411,0.46896,0.5022,0.4997,0.49783,0.46987,0.44647,0.46513,0.49994,0.48148,0.44591,0.4104,0.42393,0.42245,0.42884,0.43054,0.43075,0.43131,0.42226,0.39831,0.40452,0.42521,0.40256,0.41507,0.39575,0.42074,0.37689,0.34764,0.35567,0.38233,0.36041,0.39295,0.33996,0.33779,0.35717,0.34944,0.29268,0.3279,0.309,0.35325,0.2824,0.28336,0.28027,0.31043,0.28818,0.25752,0.27277,0.26965,0.24111,0.24445,0.26129,0.24349,0.2333,0.21488,0.22072,0.23993,0.17677,0.19922,0.2161,0.17531,0.17794,0.17608,0.17516,0.18266,0.17647,0.17391,0.17865,0.17521,0.12556,0.15115,0.13433,0.16208,0.12766,0.13067,0.10681,0.11068,0.096637,0.086706,0.12832,0.056665,0.045726,0.041814,0.11026,0.067367,0.029993,0.063983,0.03027,0.065405,0.020759,0.049274,0.059339,0.034965,-0.0052027,-0.013482,-0.017033,-0.010225,0.0060083,-0.014869,0.00018467,-0.051477,-0.051313,-0.040805,-0.044687,-0.062662,-0.083141,-0.088943,-0.079134,-0.071657,-0.1195,-0.097925,-0.11281,-0.096591,-0.092804,-0.10569,-0.099408,-0.13903,-0.12286,-0.11466,-0.11582,-0.14678,-0.14305,-0.16789,-0.16653,-0.18013,-0.18054,-0.21025,-0.1831,-0.16207,-0.22068,-0.22172,-0.2366,-0.22001,-0.22261,-0.20745,-0.25708,-0.23971,-0.22441,-0.28559,-0.2404,-0.29025,-0.28457,-0.29718,-0.28818,-0.29661,-0.28516,-0.31797,-0.30546,-0.30618,-0.32495,-0.34105,-0.34769,-0.30698,-0.36043,-0.34963,-0.3711,-0.33906,-0.3528,-0.34095,-0.37056,-0.36956,-0.36124,-0.38099,-0.43256,-0.41244,-0.38321,-0.42047,-0.42079,-0.41342,-0.46702,-0.39542,-0.41416,-0.4578,-0.47615,-0.40814,-0.45014,-0.43525,-0.47649,-0.4582,-0.48675,-0.50595,-0.46283,-0.49683,-0.51997,-0.52401,-0.53522,-0.51502,-0.50237,-0.52796,-0.55031,-0.51623,-0.52979,-0.53839,-0.53378,-0.55164,-0.53599,-0.55015,-0.52974,-0.56034,-0.57377,-0.5579,-0.59591,-0.5864,-0.61705,-0.59064,-0.61398,-0.62697,-0.62024,-0.63768,-0.59626,-0.61644,-0.65605,-0.66288,-0.62454,-0.66534,-0.66105,-0.66305,-0.65831,-0.67452,-0.65577,-0.63766,-0.64212,-0.6817,-0.65823,-0.70169,-0.70561,-0.67584,-0.73155,-0.72329,-0.7021,-0.73074,-0.72372,-0.70645,-0.70474,-0.76535,-0.73515,-0.73879,-0.74496,-0.73708,-0.76394,-0.73449,-0.75272,-0.74269,-0.77201,-0.78146,-0.76459,-0.79785,-0.74613,-0.7595,-0.7932,-0.78806,-0.78405,-0.81207,-0.7833,-0.80499,-0.76861,-0.80071,-0.82223,-0.82712,-0.82449,-0.82944,-0.82694,-0.82236,-0.85245,-0.8476,-0.85846,-0.83963,-0.8366,-0.84442,-0.84469,-0.85898,-0.83878,-0.86662,-0.85361,-0.83782,-0.82727,-0.9398,-0.91266,-0.91041,-0.89403,-0.89369,-0.93239,-0.90473,-0.89462,-0.92606,-0.8898,-0.90587,-0.90297,-0.93759,-0.91898,-0.88944,-0.93437,-0.92365,-0.88054,-0.94542,-0.91296,-0.91402,-0.95867,-0.95561,-0.90987,-0.92141,-0.92663,-0.92155,-0.95776,-0.95776,-0.9446,-0.93218,-0.9278,-0.92495,-0.93874,-0.97697,-0.94624,-0.96148,-0.95416,-0.93762,-0.93878,-0.95538,-0.93505,-0.95838,-0.94786,-0.99357,-0.97445,-0.96432,-0.99412,-1.0064,-0.95384,-0.99881,-1.0096,-0.92474,-0.96891,-0.98729,-0.99661,-0.99333,-0.99243,-0.96916,-0.99969,-1.0088,-0.96867,-0.98942,-0.97902,-0.97319,-0.99509,-1.0303,-1.014,-1.0088,-0.98463,-1.0164,-0.9925,-0.99956,-0.99645,-0.9866,-0.97999,-1.013,-1.0088,-0.99717,-1.023,-0.95458,-0.98362,-1.0223,-0.97976,-0.9773,-0.97542,-0.99659,-0.9847,-1.0116,-1.0167,-1.026,-0.97729,-0.98848,-0.99999,-1.0233,-0.97413,-0.98486,-0.98474,-0.99517,-0.98282,-0.96184,-0.96713,-1.0306,-0.95145,-0.9891,-0.99423,-0.99981,-1.0262,-0.9722,-1.0324,-0.9828,-1.0031,-1.0009,-0.95664,-1.0182,-0.98697,-1.0164,-1.0347,-0.9907,-0.9667,-0.96404,-1.0025,-0.97581,-0.95303,-1.0242,-0.94762,-0.95216,-0.99644,-0.96931,-0.95689,-0.95727,-0.98243,-0.95426,-0.95851,-0.97787,-0.97232,-0.97202,-0.94777,-0.97149,-0.95714,-0.97642,-0.92998,-0.95689,-0.94005,-0.9427,-0.95366,-0.92572,-0.97246,-0.93171,-0.92732,-0.94489,-0.90574,-0.95985,-0.91927,-0.928,-0.92734,-0.92693,-0.93392,-0.91954,-0.9289,-0.91016,-0.89962,-0.89691,-0.88761,-0.88653,-0.92219,-0.89902,-0.9021,-0.88762,-0.88861,-0.85858,-0.88612,-0.89287,-0.86512,-0.88403,-0.88131,-0.87452,-0.86917,-0.86854,-0.88017,-0.85405,-0.82712,-0.8164,-0.86839,-0.86588,-0.83522,-0.80501,-0.8247,-0.8214,-0.7924,-0.82125,-0.83225,-0.82161,-0.81308,-0.77573,-0.76338,-0.79408,-0.82086,-0.80696,-0.78668,-0.77419,-0.80081,-0.78375,-0.76415,-0.75851,-0.79965,-0.78123,-0.7508,-0.73311,-0.76645,-0.73523,-0.753,-0.73423,-0.70828,-0.7293,-0.71527,-0.6998,-0.68587,-0.69941,-0.66265,-0.66904,-0.70623,-0.72509,-0.66078,-0.68401,-0.72446,-0.67623,-0.70135,-0.64469,-0.69134,-0.67936,-0.65079,-0.67808,-0.61926,-0.62294,-0.63517,-0.63927,-0.66909,-0.64111,-0.60357,-0.6232,-0.60583,-0.62103,-0.57027,-0.60071,-0.61618,-0.56349,-0.61241,-0.5733,-0.58118,-0.56781,-0.57365,-0.577,-0.57192,-0.57016,-0.54001,-0.58665,-0.52641,-0.52488,-0.5348,-0.54588,-0.49952,-0.52436,-0.51154,-0.48842,-0.4743,-0.5141,-0.43149,-0.49432,-0.47707,-0.44537,-0.49029,-0.45384,-0.46475,-0.42005,-0.45581,-0.39109,-0.41871,-0.45275,-0.41488,-0.41674,-0.39143,-0.40746,-0.38037,-0.3974,-0.398,-0.37354,-0.37719,-0.38581,-0.3791,-0.33196,-0.4074,-0.3704,-0.34298,-0.35767,-0.32591,-0.33588,-0.35229,-0.36498,-0.3499,-0.32326,-0.29698,-0.26275,-0.30377,-0.31274,-0.28095,-0.26176,-0.26342,-0.27482,-0.27293,-0.25879,-0.23646,-0.26845,-0.23577,-0.22147,-0.23304,-0.24933,-0.19476,-0.21959,-0.18536,-0.21209,-0.15647,-0.18707,-0.20314,-0.20714,-0.13957,-0.16126,-0.1629,-0.1576,-0.13348,-0.1768,-0.15951,-0.10865,-0.10821,-0.12788,-0.13358,-0.1347,-0.059864,-0.10276,-0.11379,-0.066173,-0.086184,-0.069358,-0.069281,-0.035697,-0.041038,-0.091476,-0.057628,-0.056767,-0.055616,-0.013041,-0.00637,0.0033373,-0.02028,-0.045606,-0.0089429,0.0047373,-0.0029282,0.016529,0.011097,0.043318,0.032736,0.013724,0.065527,0.040747,0.077257,0.062914,0.052827,0.095578,0.083723,0.076251,0.1292,0.11359,0.07642,0.14301,0.11372,0.11401,0.16623,0.14793,0.18853,0.16645,0.1542,0.16477,0.17619,0.18965,0.18314,0.19162,0.18538,0.1788,0.2091,0.19538,0.2071,0.20956,0.20418,0.22375,0.23085,0.24261,0.21809,0.24937,0.27201,0.29478,0.29838,0.28779,0.28606,0.28454,0.31922,0.34557,0.30256,0.29196,0.2787,0.28734,0.33742,0.35898,0.34685,0.35047,0.35167,0.33844,0.38334,0.32758,0.34423,0.35346,0.39292,0.39951,0.41008,0.40075,0.3829,0.39293,0.41055,0.43583,0.44972,0.40373,0.45798,0.48588,0.44274,0.46946,0.48844,0.45158,0.48604,0.46243,0.45942,0.4869,0.52468,0.46898,0.50736,0.52009,0.48421,0.51526,0.54862,0.49844,0.51465,0.54186,0.54954,0.5425,0.52871,0.56154,0.54302,0.57749,0.55079,0.52579,0.55938,0.59998,0.61182,0.59145,0.60701,0.62721,0.6123,0.58963,0.58624,0.6035,0.65845,0.61905,0.62007,0.67869,0.673,0.63194,0.65645,0.64636,0.66535,0.67172,0.69632,0.68019,0.66604,0.67309,0.70618,0.67916,0.66451,0.69602,0.6894,0.71423,0.72864,0.70847,0.76176,0.69016,0.71331,0.75745,0.7097,0.73697,0.76754,0.73573,0.75858,0.75904,0.75778,0.78476,0.79163,0.77613,0.73961,0.80448,0.78632,0.74823,0.78621,0.79656,0.78652,0.81397,0.81522,0.82601,0.81271,0.81927,0.80555,0.86104,0.81059,0.84553,0.82483,0.80776,0.83994,0.82415,0.85066,0.82325,0.86026,0.82945,0.8766,0.82638,0.88739,0.90409,0.87702,0.88472,0.92729,0.85959,0.88728,0.86554,0.87633,0.88752,0.89274,0.90163,0.88298,0.91692,0.88444,0.8994,0.87937,0.92264,0.91894,0.93556,0.91803,0.92432,0.87939,0.87711,0.9181,0.92182,0.92097,0.94688,0.93548,0.93767,0.90534,0.95506,0.9595,0.89891,0.93855,0.96193,0.96867,0.93718,0.93659,0.95293,0.91513,0.92829,0.95091,0.93778,1.0191,0.97465,0.94459,0.97201,0.94944,0.96109,0.98226,0.96652,0.95771,0.92754,0.94896,0.99389,0.99812,0.95893,0.9616,0.98877,0.96818,1.0163,0.97506,0.99591,1.0116,0.99341,0.98532,0.96037,0.97201,1.0045,1.0043,0.99133,1.0293,0.95991,0.94371,1.0096,0.98446,1.0319,1.0056,0.96541,0.98845,1.0036,1.0148,1.0106,0.99156,0.98784,1.0276,1.0304,1.0154,1.0084,1.0055,0.98721,0.98048,1.0107,1.0128,1.0214,1.0056,1.0154,0.95924,1.0118,1.0145,1.0157,1.0084,1.077,0.9919,0.97278,1.0084,1.0155,0.99031,1.0147,0.97896,0.9864,0.98548,0.98989,0.97326,0.96691,0.99501,0.98009,0.98831,1.0116,1.0257,0.96963,1.0008,0.96616,0.97631,0.98899,0.96257,0.99492,0.97986,0.97488,0.95074,0.96629,0.99379,0.95775,0.95409,0.9568,0.95226,0.96066,0.97278,0.93935,0.95613,0.97172,0.95696,0.94945,0.95996,0.96912,0.9317,0.94685,0.9519,0.92176,0.94233,0.89684,0.95968,0.91336,0.9139,0.92929,0.9276,0.87385,0.9324,0.88365,0.93164,0.92293,0.92113,0.89024,0.85807,0.87895,0.86529,0.89279,0.90213,0.88702,0.89428,0.85041,0.89924,0.92045,0.86264,0.86824,0.8841,0.88145,0.89956,0.84592,0.84087,0.82202,0.82896,0.86972,0.85306,0.86632,0.88274,0.84347,0.86847,0.82267,0.83084,0.80399,0.8366,0.82929,0.79419,0.81644,0.82983,0.82975,0.78165,0.814,0.80723,0.80736,0.8174,0.79437,0.81814,0.776,0.75181,0.77234,0.74425,0.75127,0.79279,0.76085,0.76793,0.74416,0.72758,0.74876,0.75613,0.75164,0.7585,0.70399,0.73888,0.70224,0.71768,0.67077,0.70611,0.71999,0.70143,0.70674,0.70636,0.68602,0.68524,0.70769,0.7203,0.65491,0.65026,0.67961,0.62266,0.6715,0.63254,0.62651,0.62961,0.62682,0.62571,0.6031,0.60815,0.61196,0.61409,0.60888,0.61023,0.58729,0.6154,0.56128,0.55102,0.56183,0.57712,0.57179,0.60767,0.5569,0.53666,0.53371,0.52744,0.53082,0.52483,0.54922,0.51067,0.49918,0.51531,0.46909,0.52002,0.47599,0.49425,0.51655,0.52912,0.49728,0.45691,0.45631,0.48748,0.44796,0.46812,0.47613,0.43607,0.40603,0.45875,0.4419,0.39261,0.39227,0.40533,0.3898,0.41942,0.38766,0.38364,0.38629,0.36596,0.33677,0.37577,0.36414,0.35152,0.35348,0.3492,0.36652,0.34556,0.36909,0.33972,0.31874,0.3189,0.30317,0.28959,0.28409,0.26105,0.26649,0.28933,0.26726,0.25468,0.25896,0.26716,0.23454,0.2514,0.25339,0.22404,0.21823,0.22463,0.22399,0.20558,0.19266,0.18311,0.19352,0.21056,0.17082,0.15873,0.14954,0.16741,0.17648,0.17017,0.14442,0.15737,0.11556,0.12361,0.15149,0.099261,0.113,0.11173,0.097495,0.10097,0.095321,0.088341,0.084583,0.070163,0.086691,0.06458,0.045942,0.07694,0.052488,0.047387,0.0051556,0.051507,-0.0054156,-0.013303,0.0081557,-0.0088099,-0.013771,0.016014,0.0063107,-0.030168,-0.018954,-0.022266,-0.035089,-0.032299,-0.066436,-0.057904,-0.073884,-0.09588,-0.086324,-0.096992,-0.083807,-0.083323,-0.10349,-0.086029,-0.12446,-0.14411,-0.17109,-0.17699,-0.1319,-0.099462,-0.15414,-0.14366,-0.16205,-0.1679,-0.19527,-0.1903,-0.18816,-0.18555,-0.17751,-0.23278,-0.191,-0.19687,-0.2314,-0.19608,-0.21108,-0.23744,-0.22924,-0.25254,-0.29257,-0.26978,-0.26579,-0.28158,-0.26478,-0.29396,-0.2632,-0.28503,-0.28961,-0.29944,-0.25756,-0.33331,-0.36955,-0.33831,-0.32075,-0.3555,-0.34528,-0.32273,-0.35284,-0.33656,-0.3679,-0.37937,-0.34881,-0.37929,-0.38016,-0.38443,-0.36057,-0.42452,-0.39354,-0.42175,-0.38185,-0.38823,-0.43752,-0.4257,-0.47359,-0.41883,-0.45582,-0.43651,-0.42952,-0.44499,-0.4489,-0.46123,-0.49281,-0.49339,-0.49503,-0.51554,-0.48802,-0.49626,-0.47786,-0.49041,-0.53306,-0.52119,-0.55801,-0.55801,-0.55492,-0.52266,-0.54122,-0.54135,-0.56353,-0.58259,-0.60055,-0.58566,-0.57159,-0.59648,-0.56337,-0.60515,-0.57528,-0.59796,-0.58297,-0.62301,-0.59599,-0.6063,-0.59559,-0.62123,-0.62138,-0.64084,-0.63553,-0.61294,-0.68214,-0.65525,-0.6496,-0.66022,-0.65624,-0.67431,-0.69635,-0.70278,-0.70349,-0.68514,-0.72415,-0.69546,-0.67564,-0.7281,-0.70105,-0.68547,-0.73202,-0.70515,-0.75089,-0.73455,-0.73571,-0.70688,-0.75927,-0.74911,-0.75763,-0.76614,-0.77268,-0.74629,-0.75926,-0.75556,-0.7987,-0.81862,-0.79687,-0.76606,-0.81468,-0.82018,-0.82264,-0.79304,-0.80705,-0.80248,-0.798,-0.84057,-0.83318,-0.79111,-0.79626,-0.85366,-0.83289,-0.82028,-0.79416,-0.83182,-0.87188,-0.85419,-0.87026,-0.84426,-0.82485,-0.85104,-0.85939,-0.85292,-0.89761,-0.85567,-0.91158,-0.9051,-0.89389,-0.85538,-0.85752,-0.93883,-0.87902,-0.8834,-0.88738,-0.89474,-0.91474,-0.92378,-0.89535,-0.8997,-0.89357,-0.91479,-0.90822,-0.88889,-0.93815,-0.92851,-0.91387,-0.89879,-0.92055,-0.95459,-0.91601,-0.93706,-0.95511,-0.97178,-0.98007,-0.91411,-0.97021,-0.9507,-0.97185,-0.97685,-0.96922,-0.97228,-0.9589,-0.96583,-0.96301,-0.93514,-0.98514,-0.97392,-0.96315,-0.94306,-0.9748,-0.99381,-0.97562,-0.96322,-1.0128,-0.96524,-0.97896,-0.96253,-0.97792,-0.97122,-0.96348,-0.98383,-0.98077,-0.9783,-1.005,-0.95349,-0.9976,-0.99557,-0.96323,-0.99752,-0.9945,-1.0086,-0.9539,-1.0475,-1.0209,-1.0035,-0.99245,-0.99263,-1.0065,-1.0245,-0.98801,-1.0277,-0.98468,-1.0039,-1.0303,-0.97737,-0.99633,-1.0117,-0.97291,-1.0009,-0.96957,-1.0166,-0.99859,-0.98154,-0.97294,-0.99965,-0.97974,-1.0269,-1.0197,-0.99692,-1.0045,-0.99197,-0.99824,-0.9603,-0.99278,-0.98326,-0.98458,-0.97535,-1.0149,-1.0113,-1.005,-0.98464,-1.0237,-0.99599,-1.0278,-0.9562,-0.9847,-0.99608,-0.98052,-1.0336,-0.96914,-0.96924,-1.0169,-0.97212,-0.9685,-0.98787,-0.98407,-0.96777,-0.94552,-0.98759,-0.95992,-0.96996,-0.96765,-0.97868,-0.97699,-0.98452,-0.98369,-0.98383,-0.96238,-0.98396,-0.99214,-0.974,-0.97914,-0.97819,-0.98715,-0.95875,-0.95228,-0.96055,-0.9457,-0.94387,-0.92839,-0.94462,-0.96487,-0.95042,-0.93431,-0.94239,-0.93563,-0.92572,-0.96673,-0.94445,-0.95831,-0.89934,-0.92384,-0.94014,-0.93921,-0.88571,-0.92489,-0.86759,-0.90602,-0.89683,-0.9098,-0.89769,-0.91053,-0.89349,-0.89689,-0.88388,-0.91225,-0.87674,-0.88236,-0.88197,-0.84887,-0.81787,-0.85703,-0.84701,-0.87404,-0.82292,-0.85473,-0.83671,-0.90618,-0.85512,-0.83566,-0.81751,-0.82284,-0.85322,-0.84024,-0.85099,-0.8154,-0.82868,-0.79465,-0.80711,-0.78779,-0.82449,-0.7822,-0.83234,-0.77034,-0.80715,-0.80333,-0.77906,-0.77237,-0.7481,-0.76899,-0.76092,-0.77732,-0.7692,-0.78766,-0.76398,-0.75567,-0.73774,-0.72065,-0.75024,-0.77164,-0.75508,-0.7357,-0.71939,-0.70166,-0.71741,-0.69809,-0.69745,-0.72453,-0.68067,-0.71352,-0.70479,-0.68798,-0.68945,-0.68177,-0.68069,-0.64301,-0.67985,-0.69109,-0.70485,-0.67193,-0.6678,-0.57267,-0.62254,-0.66229,-0.63251,-0.60362,-0.62104,-0.62042,-0.58958,-0.61498,-0.6377,-0.59405,-0.5812,-0.55707,-0.59209,-0.58645,-0.54628,-0.56213,-0.61861,-0.57767,-0.56322,-0.55582,-0.56191,-0.54923,-0.51753,-0.50361,-0.53271,-0.52591,-0.52997,-0.5254,-0.51323,-0.48603,-0.50163,-0.4913,-0.5096,-0.48988,-0.5046,-0.41272,-0.45189,-0.46358,-0.49775,-0.46121,-0.46093,-0.45125,-0.47447,-0.42499,-0.43913,-0.43211,-0.42606,-0.37995,-0.43419,-0.40848,-0.42301,-0.38617,-0.37347,-0.37986,-0.40368,-0.33512,-0.36347,-0.35217,-0.37801,-0.35458,-0.33585,-0.32604,-0.33931,-0.30786,-0.30773,-0.29971,-0.27775,-0.28609,-0.31571,-0.26773,-0.25947,-0.29258,-0.29729,-0.2425,-0.2352,-0.28032,-0.22529,-0.22598,-0.25098,-0.19205,-0.20291,-0.2192,-0.23467,-0.23483,-0.23382,-0.18955,-0.16131,-0.20958,-0.1911,-0.19117,-0.15175,-0.13611,-0.16106,-0.17417,-0.11839,-0.11789,-0.13916,-0.15674,-0.11163,-0.15417,-0.11047,-0.10461,-0.078319,-0.077908,-0.081046,-0.05126,-0.055982,-0.10989,-0.054566,-0.04571,-0.061749,-0.051808,-0.051499,0.016766,-0.042343,-0.038139,0.016675,-0.021673,-0.0013669,0.0056909,0.001322,0.016292,-0.023989,0.033056,0.042886,0.041485,0.064475,0.05068,0.075133,0.078626,0.083119,0.087124,0.084289,0.077152,0.066224,0.093039,0.089573,0.12603,0.13257,0.12595,0.12473,0.17063,0.15406,0.15394,0.13274,0.16721,0.13649,0.16883,0.17105,0.15949,0.16551,0.19482,0.19436,0.17448,0.182,0.22761,0.19869,0.1812,0.26803,0.22995,0.25839,0.24506,0.23101,0.27554,0.27659,0.27589,0.25072,0.3006,0.28964,0.27074,0.29882,0.28813,0.29957,0.31783,0.3212,0.3377,0.30793,0.36869,0.3037,0.35941,0.36335,0.35779,0.38147,0.39365,0.3577,0.36273,0.40451,0.41967,0.39746,0.43097,0.41028,0.40813,0.3921,0.43033,0.45001,0.42324,0.40776,0.4255,0.46782,0.45668,0.47558,0.44561,0.46777,0.47983,0.48804,0.52465,0.47462,0.52591,0.4919,0.53718,0.50701,0.5273,0.51111,0.55099,0.53741,0.54075,0.55632,0.57414,0.55023,0.5395,0.53397,0.57589,0.55004,0.58416,0.59762,0.57078,0.5906,0.56307,0.6107,0.6018,0.62207,0.62949,0.58887,0.64258,0.61841,0.62282,0.63367,0.64534,0.66067,0.67013,0.69549,0.64757,0.68859,0.64276,0.6412,0.6695,0.71383,0.69983,0.72133,0.67852,0.70851,0.68263,0.69509,0.72546,0.68366,0.67907,0.72108,0.7111,0.73586,0.74355,0.74924,0.74128,0.76374,0.77618,0.74575,0.74947,0.73901,0.77321,0.79241,0.77831,0.75492,0.76286,0.80705,0.79786,0.79579,0.80291,0.80042,0.80717,0.78463,0.79192,0.8066,0.81474,0.84702,0.78327,0.8229,0.83633,0.84208,0.83108,0.82714,0.87766,0.85711,0.8673,0.88023,0.85491,0.83319,0.83255,0.85804,0.86899,0.88083,0.87128,0.86721,0.88667,0.85771,0.89838,0.88079,0.9258,0.90915,0.88914,0.89732,0.91588,0.8887,0.89575,0.90252,0.95383,0.91872,0.90704,0.90509,0.8814,0.93832,0.92779,0.88971,0.9343,0.88288,0.92394,0.91107,0.94869,0.93145,0.90985,0.92902,0.93075,0.91159,0.94474,0.94347,0.99541,0.93439,0.96055,0.96583,0.94168,0.92055,0.93255,0.93722,0.97116,0.95416,0.95871,0.96753,0.97103,1.0117,1.0132,0.94495,0.98278,1.0179,0.99565,0.97629,0.95228,1.0082,0.95582,0.99845,0.98308,0.94073,0.9575,0.9594,0.98769,0.98503,1.0103,0.98652,0.95444,1.0037,0.99019,0.99255,1.0368,0.96358,0.99323,0.99037,1.0118,0.98201,1.0108,1.0056,1.0177,0.98358,0.95572,1.0139,1.038,0.97946,0.98394,0.96886,0.99772,1.0148,0.9637,1.0044,1.011,0.95909,0.97294,0.9844,0.99827,0.98673,1.0073,0.99699,0.99729,0.98474,1.0008,1.0102,0.965,1.0124,0.99336,0.97684,1.021,0.97252,1.0014,1.0119,0.97355,0.96567,1.0385,0.98496,0.98891,0.96599,1.0017,0.98859,1.0034,0.98136,0.98061,0.98332,1.0004,0.99744,0.96046,0.98661,0.9728,0.97048,0.95664,0.96297,0.97084,0.96535,0.95539,0.98561,0.97458,0.9533,0.96288,0.98016,0.95271,0.95262,0.91348,0.90831,0.95232,0.95158,0.96057,0.94434,0.92672,0.94494,0.95549,0.94528,0.93182,0.9251,0.93269,0.92582,0.92534,0.95342,0.90991,0.92445,0.90734,0.92396,0.9199,0.93716,0.89388,0.90031,0.87363,0.87442,0.89636,0.91306,0.87771,0.87463,0.9107,0.88517,0.88633,0.8969,0.86864,0.87856,0.90233,0.89187,0.86505,0.87213,0.87458,0.85144,0.84313,0.84214,0.83832,0.85051,0.82836,0.82943,0.84995,0.80388,0.80437,0.75899,0.80437,0.81114,0.80437,0.79543,0.8056,0.82792,0.81045,0.7961,0.80175,0.77383,0.7934,0.78206,0.74181,0.79565,0.76429,0.79987,0.75357,0.74444,0.75157,0.75293,0.78654,0.76541,0.7618,0.71062,0.7244,0.72328,0.75258,0.73399,0.70453,0.71781,0.7161,0.68166,0.71995,0.68834,0.72841,0.67328,0.68598,0.64091,0.67471,0.66433,0.6097,0.66163,0.67363,0.63592,0.68579,0.58856,0.69045,0.63642,0.65251,0.60295,0.63327,0.64141,0.60827,0.58601,0.62749,0.58203,0.58782,0.5266,0.57494,0.58284,0.55158,0.56135,0.58361,0.57241,0.59162,0.54684,0.55057,0.56659,0.50911,0.50801,0.49591,0.52169,0.48203,0.51617,0.52194,0.49084,0.51732,0.50991,0.48312,0.4856,0.44976,0.44797,0.46696,0.43076,0.4621,0.43542,0.43835,0.43122,0.4544,0.40567,0.45464,0.40722,0.39756,0.36925,0.38038,0.36965,0.40233,0.34401,0.35867,0.34489,0.37087,0.38997,0.38347,0.32519,0.31896,0.32509,0.32672,0.35776,0.30628,0.3136,0.30995,0.28033,0.2593,0.27457,0.31407,0.27011,0.23416,0.29469,0.26113,0.28024,0.23203,0.23717,0.20009,0.2098,0.21204,0.19084,0.23593,0.20726,0.20984,0.1886,0.19737,0.20408,0.19564,0.20071,0.16954,0.14089,0.14109,0.11943,0.13548,0.15486,0.13218,0.12671,0.096908,0.12657,0.10565,0.1157,0.083795,0.069939,0.085662,0.10782,0.054741,0.081912,0.076142,0.066866,0.070481,0.068093,0.024302,0.019984,0.041193,-0.013688,0.029628,0.0064437,0.033032,-0.00082369,-0.005789,-0.0045261,-8.2793e-05,-0.053402,-0.075535,-0.05888,-0.053905,-0.043703,-0.046872,-0.08152,-0.09087,-0.072943,-0.11804,-0.077852,-0.096248,-0.051921,-0.1168,-0.099684,-0.12118,-0.141,-0.12415,-0.11158,-0.11841,-0.11081,-0.13603,-0.18118,-0.14888,-0.15796,-0.14692,-0.11441,-0.17919,-0.17895,-0.17651,-0.19567,-0.24641,-0.1949,-0.18551,-0.21077,-0.23392,-0.22588,-0.22732,-0.26453,-0.27511,-0.26259,-0.26333,-0.24431,-0.29006,-0.24616,-0.30677,-0.30069,-0.26838,-0.3257,-0.32833,-0.3082,-0.32242,-0.32056,-0.32722,-0.31734,-0.34506,-0.3596,-0.38055,-0.39584,-0.35715,-0.36349,-0.38171,-0.39237,-0.38352,-0.37049,-0.38496,-0.41239,-0.40619,-0.41326,-0.42614,-0.37894,-0.40338,-0.40019,-0.43865,-0.41905,-0.43062,-0.43064,-0.49429,-0.46698,-0.48643,-0.44442,-0.44291,-0.49084,-0.46851,-0.50432,-0.51201,-0.5169,-0.51057,-0.50479,-0.5304,-0.52249,-0.53387,-0.53228,-0.55566,-0.56804,-0.55832,-0.54874,-0.54784,-0.55084,-0.55637,-0.59333,-0.56662,-0.56194,-0.63697,-0.58915,-0.62246,-0.59112,-0.59098,-0.57397,-0.60144,-0.66508,-0.62616,-0.62379,-0.63981,-0.6166,-0.64903,-0.65943,-0.66159,-0.64076,-0.66442,-0.67663,-0.66856,-0.68248,-0.6717,-0.66,-0.69963,-0.69213,-0.69798,-0.68377,-0.6934,-0.71235,-0.74564,-0.71391,-0.72302,-0.72506,-0.79984,-0.73141,-0.74094,-0.75795,-0.75716,-0.76213,-0.71139,-0.78582,-0.75548,-0.77968,-0.77397,-0.79513,-0.81339,-0.79034,-0.7507,-0.76617,-0.82377,-0.78502,-0.78507,-0.76937,-0.82585,-0.83935,-0.78287,-0.82914,-0.79917,-0.80857,-0.83486,-0.83174,-0.82973,-0.83305,-0.82865,-0.86153,-0.89149,-0.86577,-0.86162,-0.85665,-0.8408,-0.83785,-0.8278,-0.86786,-0.89495,-0.89333,-0.89104,-0.88346,-0.89225,-0.89814,-0.87479,-0.87582,-0.83428,-0.87223,-0.87345,-0.90549,-0.90397,-0.90011,-0.91802,-0.90764,-0.91437,-0.92329,-0.88563,-0.87322,-0.96739,-0.90846,-0.95326,-0.91036,-0.91866,-0.9251,-0.92594,-0.92844,-0.94883,-0.93423,-0.92346,-0.94668,-0.93785,-0.93823,-0.98832,-0.96689,-1.0026,-0.97206,-0.98038,-0.98302,-0.94506,-1.0133,-0.94375,-0.96638,-0.96766,-0.97896,-0.9536,-0.96191,-0.9665,-0.98536,-0.93752,-0.99167,-0.95555,-0.99638,-0.9713,-0.96082,-0.95194,-0.98358,-0.9778,-0.97523,-0.97159,-0.98403,-1.0024,-0.94925,-0.99102,-1.0238,-0.99683,-0.99084,-0.94525,-0.99493,-1.0237,-1.0092,-0.98327,-0.96995,-1.0023,-1.002,-0.99981,-1.0082,-0.99829,-0.99951,-1.0069,-0.96328,-0.99078,-1.0271,-0.976,-0.98346,-1.0092,-0.98089,-1.0139,-1.0018,-1.0024,-0.97163,-1.0131,-0.97641,-1.0131,-0.99809,-0.99437,-1.0129,-1.0204,-1.0005,-1.0013,-1.0111,-1.0183,-0.99954,-0.97396,-1.0101,-0.96807,-0.9624,-0.97639,-1.0194,-0.96106,-1.0091,-0.99176,-0.98694,-0.99042,-0.98809,-0.9793,-0.96876,-1.0144,-0.97574,-0.96134,-0.96941,-1.0132,-0.96419,-0.96896,-0.97289,-0.97601,-0.98563,-0.96984,-0.96479,-0.98052,-0.95231,-0.94282,-0.96509,-1.0144,-0.95655,-0.95937,-0.95204,-0.97679,-0.95829,-0.9706,-0.96765,-0.95938,-0.94113,-0.95927,-0.93978,-0.90852,-0.97717,-0.92999,-0.95542,-0.93955,-0.9105,-0.9548,-0.92045,-0.90228,-0.888,-0.91019,-0.91514,-0.93921,-0.91345,-0.91928,-0.90235,-0.89809,-0.8968,-0.89744,-0.9006,-0.9021,-0.86726,-0.87905,-0.88418,-0.8925,-0.88596,-0.8899,-0.89645,-0.85696,-0.88978,-0.88374,-0.89164,-0.87321,-0.85476,-0.85261,-0.85808,-0.86986,-0.86506,-0.85021,-0.89929,-0.86677,-0.83605,-0.80047,-0.84652,-0.83817,-0.80711,-0.83211,-0.827,-0.79478,-0.83431,-0.80651,-0.81032,-0.83938,-0.79274,-0.79633,-0.78685,-0.75714,-0.73373,-0.77166,-0.76106,-0.78939,-0.76232,-0.77226,-0.77536,-0.7665,-0.76141,-0.72323,-0.73661,-0.73902,-0.72984,-0.70806,-0.76228,-0.69786,-0.7045,-0.69136,-0.72337,-0.66412,-0.71686,-0.69568,-0.70205,-0.71666,-0.66482,-0.68238,-0.71804,-0.64778,-0.67325,-0.69569,-0.68779,-0.64777,-0.68911,-0.67067,-0.62845,-0.6297,-0.61611,-0.61252,-0.61382,-0.59289,-0.57238,-0.58371,-0.61682,-0.63948,-0.59641,-0.58793,-0.57098,-0.57004,-0.59146,-0.60655,-0.59472,-0.56689,-0.54473,-0.53074,-0.54387,-0.54632,-0.50625,-0.53978,-0.53706,-0.50118,-0.47365,-0.52952,-0.47912,-0.50224,-0.52961,-0.50272,-0.49104,-0.44942,-0.47052,-0.46572,-0.48611,-0.50743,-0.43702,-0.4545,-0.39975,-0.46565,-0.38224,-0.42924,-0.43289,-0.42178,-0.38188,-0.42281,-0.39642,-0.38941,-0.36253,-0.41412,-0.42396,-0.39628,-0.36608,-0.33911,-0.37344,-0.34671,-0.32406,-0.36166,-0.33757,-0.30232,-0.30887,-0.32494,-0.27095,-0.33498,-0.29492,-0.24303,-0.2505,-0.29061,-0.31348,-0.27887,-0.30626,-0.3217,-0.30375,-0.27986,-0.22625,-0.25073,-0.24518,-0.23352,-0.22315,-0.19009,-0.24584,-0.21587,-0.21293,-0.21914,-0.19938,-0.2066,-0.21039,-0.17506,-0.15544,-0.13429,-0.16689,-0.14837,-0.19347,-0.10794,-0.13275,-0.11521,-0.11366,-0.12821,-0.12843,-0.10271,-0.099279,-0.099185,-0.099647,-0.038344,-0.051576,-0.10517,-0.089462,-0.073107,-0.048527,-0.069283,-0.022249,-0.0459,-0.032167,-0.064191,-0.037667,-0.009094,-0.0033555,-0.0031457,-0.055486,0.01289,0.036765,0.024553,0.037504,0.029764,0.039698,0.068181,0.043334,0.063956,0.059208,0.055518,0.048284,0.034855,0.088521,0.072377,0.10393,0.10232,0.12591,0.11527,0.11524,0.11292,0.11615,0.15185,0.13402,0.19223,0.18247,0.19174,0.17462,0.18576,0.18307,0.20403,0.18298,0.23216,0.199,0.21138,0.19464,0.18581,0.2098,0.22041,0.24784,0.23426,0.24641,0.259,0.27587,0.26775,0.27096,0.28819,0.29596,0.28384,0.3047,0.24557,0.30483,0.29152,0.28657,0.32542,0.3479,0.33433,0.32531,0.3535,0.35589,0.34627,0.36897,0.35842,0.32524,0.37606,0.36234,0.39105,0.37351,0.37153,0.37852,0.3972,0.41185,0.44158,0.42618,0.42089,0.4546,0.44352,0.43998,0.45483,0.45959,0.47011,0.44345,0.4531,0.4873,0.46827,0.51544,0.50371,0.46778,0.45928,0.51703,0.50889,0.50094,0.5357,0.53546,0.52867,0.54993,0.54766,0.54351,0.57284,0.5496,0.59172,0.56003,0.56313,0.54592,0.55703,0.61457,0.59404,0.59163,0.64411,0.61573,0.59209,0.62134,0.60006,0.61848,0.61531,0.61866,0.61741,0.65678,0.63781,0.64338,0.64064,0.64414,0.66304,0.64584,0.66452,0.67887,0.6259,0.66497,0.65835,0.68552,0.72859,0.70349,0.706,0.71342,0.69531,0.72563,0.72773,0.73652,0.71161,0.75489,0.7162,0.75851,0.74605,0.75353,0.76133,0.7708,0.75993,0.77718,0.7497,0.78782,0.77078,0.78603,0.77029,0.80943,0.81306,0.78409,0.78054,0.81619,0.81565,0.80834,0.85655,0.78239,0.76993,0.84285,0.81611,0.83536,0.81421,0.81908,0.86007,0.86655,0.8593,0.86698,0.84584,0.85923,0.8439,0.84697,0.86078,0.86642,0.84181,0.8694,0.89106,0.87734,0.88538,0.87171,0.85464,0.89493,0.93791,0.86079,0.87821,0.89935,0.89769,0.91046,0.90217,0.90148,0.90087,0.9025,0.90662,0.92949,0.93463,0.92249,0.919,0.95709,0.92017,0.95267,0.92433,0.95608,0.91402,0.92269,0.95054,0.95251,0.92536,0.96701,0.93916,0.93503,0.96696,0.9334,0.94711,0.96989,0.96322,0.97349,0.96646,0.95871,0.94881,0.96239,0.96966,0.95386,0.96441,0.9693,1.0016,0.9874,0.97153,0.98205,0.9934,0.98323,1.0017,0.99445,0.97558,1.0047,0.98695,0.99243,0.9995,1.0017,0.98302,0.97689,0.97906,1.0033,1.0005,1.0139,0.97242,0.99128,0.96347,0.97405,0.98258,1.0306,0.9883,0.99034,0.99975,1.0343,1.0122,0.99344,1.0236,1.0165,1.0181,0.97909,1.0101,1.0057,1.0056,0.99435,1.0029,0.99452,0.983,0.99757,1.0091,1.0083,0.97967,1.0203,0.99018,0.993,1.0171,0.95504,0.99117,0.99724,1.0174,1.0089,1.012,1.0118,0.98996,0.9816,1.0247,1.0218,1.0097,0.99855,0.98677,0.96144,0.97403,1.0278,0.97815,0.97054,0.95945,0.99562,0.98352,0.97586,0.97622,0.99105,0.9671,1.0014,0.94818,0.98303,0.96482,0.95736,0.95168,0.98237,0.97743,0.96054,0.95229,0.93026,0.97796,0.93911,0.95834,0.9548,0.94792,0.96069,0.93507,0.95785,0.95548,0.95889,0.92824,0.92867,0.93983,0.93771,0.92882,0.9049,0.91346,0.86401,0.93862,0.92162,0.9173,0.92543,0.89552,0.89073,0.93705,0.8904,0.93034,0.91867,0.88193,0.8964,0.91017,0.91333,0.89979,0.88123,0.90943,0.85319,0.87674,0.89668,0.86011,0.87283,0.84475,0.90525,0.87918,0.8521,0.88484,0.83958,0.82481,0.87237,0.87782,0.8072,0.84407,0.79837,0.82585,0.85069,0.80632,